wavelength[nm],power[dBm]
1562.000,-65.195
1562.010,-65.191
1562.020,-64.959
1562.030,-64.880
1562.040,-64.641
1562.050,-64.350
1562.060,-64.264
1562.070,-63.940
1562.080,-63.897
1562.090,-63.644
1562.100,-63.374
1562.110,-63.350
1562.120,-63.082
1562.130,-62.994
1562.140,-63.001
1562.150,-63.041
1562.160,-62.916
1562.170,-62.977
1562.180,-63.178
1562.190,-63.307
1562.200,-63.575
1562.210,-63.714
1562.220,-63.937
1562.230,-64.288
1562.240,-64.401
1562.250,-64.595
1562.260,-64.898
1562.270,-64.909
1562.280,-64.845
1562.290,-65.033
1562.300,-65.218
1562.310,-65.443
1562.320,-65.407
1562.330,-65.347
1562.340,-65.411
1562.350,-65.349
1562.360,-65.138
1562.370,-65.266
1562.380,-65.066
1562.390,-65.024
1562.400,-64.911
1562.410,-64.723
1562.420,-64.482
1562.430,-64.257
1562.440,-64.104
1562.450,-63.825
1562.460,-63.796
1562.470,-63.581
1562.480,-63.385
1562.490,-63.198
1562.500,-63.096
1562.510,-63.191
1562.520,-63.118
1562.530,-63.168
1562.540,-63.304
1562.550,-63.187
1562.560,-63.560
1562.570,-63.642
1562.580,-63.836
1562.590,-64.071
1562.600,-64.197
1562.610,-64.427
1562.620,-64.509
1562.630,-64.789
1562.640,-64.965
1562.650,-65.048
1562.660,-64.998
1562.670,-65.138
1562.680,-65.291
1562.690,-65.327
1562.700,-65.426
1562.710,-65.276
1562.720,-65.362
1562.730,-65.156
1562.740,-65.290
1562.750,-65.003
1562.760,-64.833
1562.770,-64.679
1562.780,-64.475
1562.790,-64.310
1562.800,-64.238
1562.810,-63.993
1562.820,-63.741
1562.830,-63.573
1562.840,-63.521
1562.850,-63.369
1562.860,-63.261
1562.870,-63.352
1562.880,-63.239
1562.890,-63.264
1562.900,-63.293
1562.910,-63.431
1562.920,-63.562
1562.930,-63.703
1562.940,-63.821
1562.950,-64.116
1562.960,-64.217
1562.970,-64.427
1562.980,-64.539
1562.990,-64.732
1563.000,-64.806
1563.010,-65.068
1563.020,-65.093
1563.030,-65.165
1563.040,-65.093
1563.050,-65.151
1563.060,-65.242
1563.070,-65.073
1563.080,-65.249
1563.090,-65.178
1563.100,-64.978
1563.110,-65.024
1563.120,-64.596
1563.130,-64.528
1563.140,-64.520
1563.150,-64.276
1563.160,-64.212
1563.170,-64.052
1563.180,-63.909
1563.190,-63.648
1563.200,-63.610
1563.210,-63.411
1563.220,-63.320
1563.230,-63.263
1563.240,-63.306
1563.250,-63.321
1563.260,-63.281
1563.270,-63.282
1563.280,-63.488
1563.290,-63.696
1563.300,-63.739
1563.310,-64.016
1563.320,-64.104
1563.330,-64.334
1563.340,-64.360
1563.350,-64.500
1563.360,-64.743
1563.370,-64.754
1563.380,-64.899
1563.390,-64.944
1563.400,-64.927
1563.410,-65.166
1563.420,-65.234
1563.430,-65.139
1563.440,-64.968
1563.450,-65.135
1563.460,-64.926
1563.470,-64.907
1563.480,-64.773
1563.490,-64.674
1563.500,-64.655
1563.510,-64.344
1563.520,-64.308
1563.530,-64.149
1563.540,-64.001
1563.550,-63.729
1563.560,-63.737
1563.570,-63.474
1563.580,-63.501
1563.590,-63.303
1563.600,-63.402
1563.610,-63.380
1563.620,-63.200
1563.630,-63.416
1563.640,-63.454
1563.650,-63.530
1563.660,-63.568
1563.670,-63.709
1563.680,-63.852
1563.690,-64.027
1563.700,-64.071
1563.710,-64.234
1563.720,-64.350
1563.730,-64.698
1563.740,-64.682
1563.750,-64.748
1563.760,-64.896
1563.770,-64.899
1563.780,-64.988
1563.790,-64.960
1563.800,-64.808
1563.810,-64.920
1563.820,-64.931
1563.830,-64.877
1563.840,-64.855
1563.850,-64.838
1563.860,-64.730
1563.870,-64.577
1563.880,-64.333
1563.890,-64.327
1563.900,-64.094
1563.910,-64.078
1563.920,-63.833
1563.930,-63.730
1563.940,-63.560
1563.950,-63.418
1563.960,-63.363
1563.970,-63.296
1563.980,-63.298
1563.990,-63.296
1564.000,-63.377
1564.010,-63.460
1564.020,-63.386
1564.030,-63.619
1564.040,-63.625
1564.050,-63.782
1564.060,-63.899
1564.070,-64.076
1564.080,-64.132
1564.090,-64.278
1564.100,-64.523
1564.110,-64.372
1564.120,-64.663
1564.130,-64.761
1564.140,-64.718
1564.150,-64.824
1564.160,-64.928
1564.170,-64.779
1564.180,-64.853
1564.190,-64.893
1564.200,-64.911
1564.210,-64.906
1564.220,-64.681
1564.230,-64.567
1564.240,-64.565
1564.250,-64.514
1564.260,-64.557
1564.270,-64.324
1564.280,-64.177
1564.290,-64.072
1564.300,-63.908
1564.310,-63.856
1564.320,-63.594
1564.330,-63.561
1564.340,-63.533
1564.350,-63.439
1564.360,-63.453
1564.370,-63.404
1564.380,-63.493
1564.390,-63.445
1564.400,-63.556
1564.410,-63.631
1564.420,-63.784
1564.430,-63.879
1564.440,-63.924
1564.450,-64.162
1564.460,-64.155
1564.470,-64.398
1564.480,-64.515
1564.490,-64.430
1564.500,-64.643
1564.510,-64.800
1564.520,-64.927
1564.530,-64.815
1564.540,-65.006
1564.550,-65.007
1564.560,-64.978
1564.570,-64.931
1564.580,-64.871
1564.590,-64.885
1564.600,-64.691
1564.610,-64.678
1564.620,-64.616
1564.630,-64.531
1564.640,-64.486
1564.650,-64.424
1564.660,-64.112
1564.670,-64.132
1564.680,-64.002
1564.690,-63.884
1564.700,-63.785
1564.710,-63.696
1564.720,-63.673
1564.730,-63.627
1564.740,-63.550
1564.750,-63.626
1564.760,-63.612
1564.770,-63.581
1564.780,-63.687
1564.790,-63.859
1564.800,-63.828
1564.810,-63.953
1564.820,-64.059
1564.830,-64.233
1564.840,-64.276
1564.850,-64.526
1564.860,-64.552
1564.870,-64.622
1564.880,-64.686
1564.890,-64.914
1564.900,-64.850
1564.910,-65.112
1564.920,-65.120
1564.930,-65.036
1564.940,-64.950
1564.950,-64.894
1564.960,-65.089
1564.970,-64.800
1564.980,-64.830
1564.990,-64.741
1565.000,-64.721
1565.010,-64.597
1565.020,-64.473
1565.030,-64.342
1565.040,-64.255
1565.050,-63.994
1565.060,-63.885
1565.070,-63.934
1565.080,-63.809
1565.090,-63.647
1565.100,-63.643
1565.110,-63.612
1565.120,-63.580
1565.130,-63.604
1565.140,-63.648
1565.150,-63.713
1565.160,-63.876
1565.170,-63.966
1565.180,-64.018
1565.190,-64.091
1565.200,-64.267
1565.210,-64.484
1565.220,-64.372
1565.230,-64.647
1565.240,-64.952
1565.250,-64.894
1565.260,-65.046
1565.270,-65.024
1565.280,-65.097
1565.290,-65.019
1565.300,-65.310
1565.310,-65.125
1565.320,-65.038
1565.330,-64.915
1565.340,-64.980
1565.350,-64.838
1565.360,-64.704
1565.370,-64.706
1565.380,-64.478
1565.390,-64.277
1565.400,-64.277
1565.410,-64.120
1565.420,-63.814
1565.430,-63.863
1565.440,-63.640
1565.450,-63.631
1565.460,-63.606
1565.470,-63.501
1565.480,-63.414
1565.490,-63.448
1565.500,-63.502
1565.510,-63.494
1565.520,-63.620
1565.530,-63.747
1565.540,-63.954
1565.550,-64.091
1565.560,-64.245
1565.570,-64.422
1565.580,-64.579
1565.590,-64.710
1565.600,-64.911
1565.610,-65.102
1565.620,-65.129
1565.630,-65.228
1565.640,-65.209
1565.650,-65.285
1565.660,-65.468
1565.670,-65.160
1565.680,-65.206
1565.690,-65.158
1565.700,-65.198
1565.710,-65.090
1565.720,-65.012
1565.730,-64.729
1565.740,-64.766
1565.750,-64.563
1565.760,-64.323
1565.770,-64.120
1565.780,-64.150
1565.790,-63.806
1565.800,-63.680
1565.810,-63.633
1565.820,-63.494
1565.830,-63.365
1565.840,-63.342
1565.850,-63.347
1565.860,-63.338
1565.870,-63.316
1565.880,-63.371
1565.890,-63.637
1565.900,-63.681
1565.910,-63.944
1565.920,-64.106
1565.930,-64.208
1565.940,-64.421
1565.950,-64.602
1565.960,-64.609
1565.970,-65.017
1565.980,-64.822
1565.990,-65.118
1566.000,-65.170
1566.010,-65.311
1566.020,-65.284
1566.030,-65.351
1566.040,-65.359
1566.050,-65.291
1566.060,-65.158
1566.070,-65.191
1566.080,-65.073
1566.090,-64.811
1566.100,-64.640
1566.110,-64.470
1566.120,-64.259
1566.130,-64.217
1566.140,-64.002
1566.150,-63.868
1566.160,-63.548
1566.170,-63.441
1566.180,-63.386
1566.190,-63.186
1566.200,-63.189
1566.210,-63.107
1566.220,-63.119
1566.230,-63.137
1566.240,-63.287
1566.250,-63.425
1566.260,-63.706
1566.270,-63.758
1566.280,-64.016
1566.290,-64.205
1566.300,-64.408
1566.310,-64.611
1566.320,-64.761
1566.330,-64.979
1566.340,-65.245
1566.350,-65.332
1566.360,-65.406
1566.370,-65.388
1566.380,-65.608
1566.390,-65.625
1566.400,-65.583
1566.410,-65.458
1566.420,-65.518
1566.430,-65.250
1566.440,-65.229
1566.450,-65.287
1566.460,-64.876
1566.470,-64.674
1566.480,-64.459
1566.490,-64.327
1566.500,-64.078
1566.510,-64.090
1566.520,-63.664
1566.530,-63.459
1566.540,-63.320
1566.550,-63.234
1566.560,-62.951
1566.570,-63.026
1566.580,-63.019
1566.590,-63.014
1566.600,-63.004
1566.610,-63.276
1566.620,-63.408
1566.630,-63.558
1566.640,-63.782
1566.650,-63.983
1566.660,-64.100
1566.670,-64.420
1566.680,-64.695
1566.690,-64.764
1566.700,-65.031
1566.710,-65.156
1566.720,-65.315
1566.730,-65.499
1566.740,-65.702
1566.750,-65.465
1566.760,-65.572
1566.770,-65.491
1566.780,-65.623
1566.790,-65.452
1566.800,-65.394
1566.810,-65.236
1566.820,-65.021
1566.830,-65.044
1566.840,-64.724
1566.850,-64.659
1566.860,-64.392
1566.870,-64.085
1566.880,-63.823
1566.890,-63.568
1566.900,-63.366
1566.910,-63.334
1566.920,-63.162
1566.930,-63.038
1566.940,-63.005
1566.950,-62.965
1566.960,-63.033
1566.970,-63.110
1566.980,-63.396
1566.990,-63.423
1567.000,-63.594
1567.010,-63.921
1567.020,-64.164
1567.030,-64.344
1567.040,-64.652
1567.050,-64.847
1567.060,-64.967
1567.070,-65.181
1567.080,-65.286
1567.090,-65.576
1567.100,-65.588
1567.110,-65.653
1567.120,-65.635
1567.130,-65.594
1567.140,-65.690
1567.150,-65.549
1567.160,-65.599
1567.170,-65.398
1567.180,-65.254
1567.190,-65.162
1567.200,-65.018
1567.210,-64.801
1567.220,-64.550
1567.230,-64.445
1567.240,-64.180
1567.250,-64.014
1567.260,-63.661
1567.270,-63.524
1567.280,-63.398
1567.290,-63.301
1567.300,-63.272
1567.310,-63.213
1567.320,-63.203
1567.330,-63.260
1567.340,-63.418
1567.350,-63.569
1567.360,-63.621
1567.370,-63.887
1567.380,-64.161
1567.390,-64.272
1567.400,-64.461
1567.410,-64.839
1567.420,-64.921
1567.430,-65.040
1567.440,-65.201
1567.450,-65.274
1567.460,-65.497
1567.470,-65.358
1567.480,-65.633
1567.490,-65.694
1567.500,-65.574
1567.510,-65.598
1567.520,-65.443
1567.530,-65.273
1567.540,-65.251
1567.550,-65.103
1567.560,-64.882
1567.570,-64.735
1567.580,-64.680
1567.590,-64.554
1567.600,-64.307
1567.610,-64.017
1567.620,-63.846
1567.630,-63.726
1567.640,-63.537
1567.650,-63.406
1567.660,-63.368
1567.670,-63.423
1567.680,-63.467
1567.690,-63.571
1567.700,-63.581
1567.710,-63.823
1567.720,-64.034
1567.730,-64.098
1567.740,-64.383
1567.750,-64.513
1567.760,-64.684
1567.770,-64.937
1567.780,-64.967
1567.790,-65.288
1567.800,-65.324
1567.810,-65.517
1567.820,-65.675
1567.830,-65.573
1567.840,-65.679
1567.850,-65.686
1567.860,-65.541
1567.870,-65.721
1567.880,-65.414
1567.890,-65.390
1567.900,-65.440
1567.910,-65.293
1567.920,-65.017
1567.930,-64.726
1567.940,-64.617
1567.950,-64.400
1567.960,-64.075
1567.970,-64.059
1567.980,-63.775
1567.990,-63.725
1568.000,-63.448
1568.010,-63.452
1568.020,-63.400
1568.030,-63.443
1568.040,-63.416
1568.050,-63.512
1568.060,-63.514
1568.070,-63.711
1568.080,-63.903
1568.090,-64.094
1568.100,-64.404
1568.110,-64.563
1568.120,-64.708
1568.130,-64.829
1568.140,-65.073
1568.150,-65.185
1568.160,-65.454
1568.170,-65.450
1568.180,-65.440
1568.190,-65.722
1568.200,-65.717
1568.210,-65.753
1568.220,-65.900
1568.230,-65.688
1568.240,-65.682
1568.250,-65.645
1568.260,-65.394
1568.270,-65.249
1568.280,-65.240
1568.290,-65.080
1568.300,-64.795
1568.310,-64.695
1568.320,-64.428
1568.330,-64.311
1568.340,-63.997
1568.350,-63.824
1568.360,-63.803
1568.370,-63.496
1568.380,-63.435
1568.390,-63.476
1568.400,-63.437
1568.410,-63.489
1568.420,-63.550
1568.430,-63.455
1568.440,-63.631
1568.450,-63.910
1568.460,-64.157
1568.470,-64.189
1568.480,-64.544
1568.490,-64.675
1568.500,-64.744
1568.510,-64.816
1568.520,-65.117
1568.530,-65.307
1568.540,-65.396
1568.550,-65.339
1568.560,-65.640
1568.570,-65.453
1568.580,-65.680
1568.590,-65.816
1568.600,-65.734
1568.610,-65.664
1568.620,-65.462
1568.630,-65.347
1568.640,-65.372
1568.650,-65.259
1568.660,-64.915
1568.670,-64.865
1568.680,-64.654
1568.690,-64.590
1568.700,-64.304
1568.710,-64.027
1568.720,-64.079
1568.730,-63.710
1568.740,-63.714
1568.750,-63.641
1568.760,-63.503
1568.770,-63.401
1568.780,-63.487
1568.790,-63.540
1568.800,-63.540
1568.810,-63.692
1568.820,-63.833
1568.830,-63.996
1568.840,-64.129
1568.850,-64.329
1568.860,-64.396
1568.870,-64.645
1568.880,-64.858
1568.890,-64.933
1568.900,-65.239
1568.910,-65.272
1568.920,-65.277
1568.930,-65.411
1568.940,-65.439
1568.950,-65.654
1568.960,-65.584
1568.970,-65.565
1568.980,-65.548
1568.990,-65.401
1569.000,-65.315
1569.010,-65.305
1569.020,-65.216
1569.030,-64.996
1569.040,-64.917
1569.050,-64.761
1569.060,-64.694
1569.070,-64.557
1569.080,-64.364
1569.090,-64.290
1569.100,-64.055
1569.110,-63.844
1569.120,-63.772
1569.130,-63.689
1569.140,-63.750
1569.150,-63.577
1569.160,-63.662
1569.170,-63.730
1569.180,-63.749
1569.190,-63.801
1569.200,-63.875
1569.210,-64.117
1569.220,-64.215
1569.230,-64.353
1569.240,-64.518
1569.250,-64.526
1569.260,-64.650
1569.270,-65.062
1569.280,-65.044
1569.290,-64.987
1569.300,-65.205
1569.310,-65.178
1569.320,-65.265
1569.330,-65.300
1569.340,-65.355
1569.350,-65.214
1569.360,-65.285
1569.370,-65.270
1569.380,-65.220
1569.390,-65.032
1569.400,-64.995
1569.410,-64.936
1569.420,-64.860
1569.430,-64.735
1569.440,-64.570
1569.450,-64.363
1569.460,-64.424
1569.470,-64.261
1569.480,-64.057
1569.490,-64.046
1569.500,-64.047
1569.510,-63.990
1569.520,-63.931
1569.530,-63.864
1569.540,-63.887
1569.550,-63.934
1569.560,-64.020
1569.570,-64.025
1569.580,-64.040
1569.590,-64.145
1569.600,-64.468
1569.610,-64.504
1569.620,-64.587
1569.630,-64.877
1569.640,-64.760
1569.650,-64.880
1569.660,-65.011
1569.670,-65.189
1569.680,-64.953
1569.690,-65.138
1569.700,-65.225
1569.710,-65.210
1569.720,-65.219
1569.730,-65.153
1569.740,-65.133
1569.750,-65.118
1569.760,-65.089
1569.770,-65.000
1569.780,-65.010
1569.790,-64.644
1569.800,-64.877
1569.810,-64.728
1569.820,-64.520
1569.830,-64.450
1569.840,-64.312
1569.850,-64.326
1569.860,-64.239
1569.870,-64.022
1569.880,-64.060
1569.890,-64.089
1569.900,-64.017
1569.910,-64.052
1569.920,-64.083
1569.930,-64.066
1569.940,-64.250
1569.950,-64.377
1569.960,-64.308
1569.970,-64.465
1569.980,-64.511
1569.990,-64.632
1570.000,-64.887
1570.010,-64.918
1570.020,-65.102
1570.030,-65.284
1570.040,-65.134
1570.050,-65.321
1570.060,-65.405
1570.070,-65.273
1570.080,-65.337
1570.090,-65.375
1570.100,-65.335
1570.110,-65.243
1570.120,-65.118
1570.130,-65.043
1570.140,-65.137
1570.150,-65.144
1570.160,-64.936
1570.170,-64.750
1570.180,-64.753
1570.190,-64.509
1570.200,-64.574
1570.210,-64.392
1570.220,-64.199
1570.230,-64.290
1570.240,-64.252
1570.250,-64.104
1570.260,-63.996
1570.270,-64.099
1570.280,-64.066
1570.290,-64.091
1570.300,-64.163
1570.310,-64.248
1570.320,-64.293
1570.330,-64.476
1570.340,-64.585
1570.350,-64.626
1570.360,-64.749
1570.370,-64.895
1570.380,-65.128
1570.390,-65.169
1570.400,-65.318
1570.410,-65.506
1570.420,-65.459
1570.430,-65.596
1570.440,-65.525
1570.450,-65.644
1570.460,-65.493
1570.470,-65.583
1570.480,-65.517
1570.490,-65.458
1570.500,-65.313
1570.510,-65.380
1570.520,-65.188
1570.530,-64.906
1570.540,-64.866
1570.550,-64.794
1570.560,-64.739
1570.570,-64.309
1570.580,-64.400
1570.590,-64.395
1570.600,-64.023
1570.610,-63.980
1570.620,-63.804
1570.630,-63.890
1570.640,-63.848
1570.650,-63.928
1570.660,-63.847
1570.670,-63.900
1570.680,-64.039
1570.690,-64.190
1570.700,-64.555
1570.710,-64.440
1570.720,-64.789
1570.730,-64.894
1570.740,-65.091
1570.750,-65.178
1570.760,-65.343
1570.770,-65.616
1570.780,-65.728
1570.790,-65.680
1570.800,-65.880
1570.810,-65.867
1570.820,-65.689
1570.830,-65.711
1570.840,-65.682
1570.850,-65.880
1570.860,-65.925
1570.870,-65.672
1570.880,-65.371
1570.890,-65.463
1570.900,-65.151
1570.910,-65.115
1570.920,-64.868
1570.930,-64.651
1570.940,-64.514
1570.950,-64.349
1570.960,-64.166
1570.970,-63.977
1570.980,-63.877
1570.990,-63.671
1571.000,-63.676
1571.010,-63.599
1571.020,-63.616
1571.030,-63.754
1571.040,-63.876
1571.050,-63.844
1571.060,-64.083
1571.070,-64.217
1571.080,-64.454
1571.090,-64.660
1571.100,-64.870
1571.110,-65.015
1571.120,-65.262
1571.130,-65.353
1571.140,-65.583
1571.150,-65.683
1571.160,-65.899
1571.170,-65.931
1571.180,-65.964
1571.190,-65.989
1571.200,-66.157
1571.210,-66.045
1571.220,-66.012
1571.230,-65.738
1571.240,-65.767
1571.250,-65.808
1571.260,-65.674
1571.270,-65.459
1571.280,-65.078
1571.290,-65.075
1571.300,-64.927
1571.310,-64.591
1571.320,-64.300
1571.330,-64.197
1571.340,-64.063
1571.350,-63.921
1571.360,-63.769
1571.370,-63.606
1571.380,-63.658
1571.390,-63.672
1571.400,-63.665
1571.410,-63.707
1571.420,-63.899
1571.430,-63.889
1571.440,-64.119
1571.450,-64.300
1571.460,-64.666
1571.470,-64.861
1571.480,-65.074
1571.490,-65.133
1571.500,-65.349
1571.510,-65.335
1571.520,-65.513
1571.530,-65.901
1571.540,-65.732
1571.550,-65.680
1571.560,-65.729
1571.570,-65.850
1571.580,-65.810
1571.590,-65.840
1571.600,-65.909
1571.610,-65.667
1571.620,-65.745
1571.630,-65.482
1571.640,-65.386
1571.650,-65.313
1571.660,-64.809
1571.670,-64.683
1571.680,-64.581
1571.690,-64.443
1571.700,-64.200
1571.710,-63.995
1571.720,-64.091
1571.730,-63.870
1571.740,-63.654
1571.750,-63.768
1571.760,-63.761
1571.770,-63.857
1571.780,-63.870
1571.790,-64.107
1571.800,-64.130
1571.810,-64.342
1571.820,-64.670
1571.830,-64.649
1571.840,-65.005
1571.850,-65.022
1571.860,-65.400
1571.870,-65.330
1571.880,-65.406
1571.890,-65.617
1571.900,-65.824
1571.910,-65.990
1571.920,-65.650
1571.930,-65.959
1571.940,-65.954
1571.950,-65.775
1571.960,-65.672
1571.970,-65.724
1571.980,-65.418
1571.990,-65.516
1572.000,-65.293
1572.010,-65.288
1572.020,-64.897
1572.030,-64.955
1572.040,-64.724
1572.050,-64.402
1572.060,-64.252
1572.070,-64.141
1572.080,-63.996
1572.090,-63.888
1572.100,-63.815
1572.110,-63.874
1572.120,-63.901
1572.130,-63.905
1572.140,-63.922
1572.150,-64.109
1572.160,-64.244
1572.170,-64.382
1572.180,-64.599
1572.190,-64.783
1572.200,-65.030
1572.210,-65.379
1572.220,-65.258
1572.230,-65.522
1572.240,-65.681
1572.250,-65.643
1572.260,-65.713
1572.270,-65.864
1572.280,-66.006
1572.290,-65.893
1572.300,-65.857
1572.310,-66.018
1572.320,-65.880
1572.330,-65.752
1572.340,-65.650
1572.350,-65.551
1572.360,-65.425
1572.370,-65.117
1572.380,-64.983
1572.390,-64.952
1572.400,-64.524
1572.410,-64.387
1572.420,-64.194
1572.430,-63.933
1572.440,-63.935
1572.450,-63.904
1572.460,-63.736
1572.470,-63.735
1572.480,-63.805
1572.490,-63.872
1572.500,-63.971
1572.510,-64.119
1572.520,-64.135
1572.530,-64.417
1572.540,-64.630
1572.550,-64.845
1572.560,-65.146
1572.570,-65.337
1572.580,-65.434
1572.590,-65.522
1572.600,-65.791
1572.610,-66.168
1572.620,-65.831
1572.630,-66.328
1572.640,-66.212
1572.650,-66.151
1572.660,-66.313
1572.670,-66.028
1572.680,-66.174
1572.690,-65.901
1572.700,-65.773
1572.710,-65.722
1572.720,-65.627
1572.730,-65.419
1572.740,-65.240
1572.750,-65.002
1572.760,-64.752
1572.770,-64.683
1572.780,-64.447
1572.790,-64.090
1572.800,-63.982
1572.810,-63.871
1572.820,-63.651
1572.830,-63.578
1572.840,-63.573
1572.850,-63.711
1572.860,-63.898
1572.870,-63.746
1572.880,-64.045
1572.890,-64.292
1572.900,-64.454
1572.910,-64.650
1572.920,-65.013
1572.930,-65.209
1572.940,-65.540
1572.950,-65.662
1572.960,-65.769
1572.970,-65.958
1572.980,-66.109
1572.990,-66.477
1573.000,-66.332
1573.010,-66.475
1573.020,-66.357
1573.030,-66.394
1573.040,-66.510
1573.050,-66.180
1573.060,-66.414
1573.070,-66.171
1573.080,-65.910
1573.090,-65.733
1573.100,-65.595
1573.110,-65.423
1573.120,-65.181
1573.130,-65.045
1573.140,-64.745
1573.150,-64.425
1573.160,-64.332
1573.170,-64.108
1573.180,-63.975
1573.190,-63.809
1573.200,-63.778
1573.210,-63.701
1573.220,-63.807
1573.230,-63.855
1573.240,-63.966
1573.250,-64.148
1573.260,-64.443
1573.270,-64.613
1573.280,-64.839
1573.290,-65.172
1573.300,-65.250
1573.310,-65.515
1573.320,-65.768
1573.330,-65.936
1573.340,-65.951
1573.350,-66.046
1573.360,-66.194
1573.370,-66.231
1573.380,-66.521
1573.390,-66.550
1573.400,-66.495
1573.410,-66.533
1573.420,-66.412
1573.430,-66.369
1573.440,-66.270
1573.450,-66.236
1573.460,-65.954
1573.470,-65.738
1573.480,-65.556
1573.490,-65.465
1573.500,-65.435
1573.510,-64.907
1573.520,-64.828
1573.530,-64.653
1573.540,-64.453
1573.550,-64.270
1573.560,-64.037
1573.570,-64.032
1573.580,-64.165
1573.590,-64.044
1573.600,-64.047
1573.610,-64.161
1573.620,-64.348
1573.630,-64.550
1573.640,-64.522
1573.650,-64.755
1573.660,-64.959
1573.670,-65.220
1573.680,-65.383
1573.690,-65.513
1573.700,-65.777
1573.710,-65.990
1573.720,-66.040
1573.730,-66.194
1573.740,-66.137
1573.750,-66.014
1573.760,-66.206
1573.770,-66.210
1573.780,-66.114
1573.790,-66.054
1573.800,-66.108
1573.810,-66.123
1573.820,-66.169
1573.830,-65.862
1573.840,-65.711
1573.850,-65.649
1573.860,-65.491
1573.870,-65.521
1573.880,-65.205
1573.890,-65.030
1573.900,-65.006
1573.910,-64.867
1573.920,-64.617
1573.930,-64.521
1573.940,-64.514
1573.950,-64.590
1573.960,-64.456
1573.970,-64.627
1573.980,-64.524
1573.990,-64.650
1574.000,-64.820
1574.010,-64.976
1574.020,-64.946
1574.030,-65.241
1574.040,-65.397
1574.050,-65.519
1574.060,-65.643
1574.070,-65.757
1574.080,-65.710
1574.090,-65.754
1574.100,-65.874
1574.110,-65.980
1574.120,-65.929
1574.130,-66.148
1574.140,-65.964
1574.150,-65.991
1574.160,-65.868
1574.170,-66.009
1574.180,-65.753
1574.190,-65.603
1574.200,-65.694
1574.210,-65.676
1574.220,-65.533
1574.230,-65.395
1574.240,-65.232
1574.250,-65.140
1574.260,-65.010
1574.270,-65.038
1574.280,-64.833
1574.290,-64.830
1574.300,-64.773
1574.310,-64.593
1574.320,-64.596
1574.330,-64.604
1574.340,-64.850
1574.350,-64.765
1574.360,-64.836
1574.370,-64.961
1574.380,-65.110
1574.390,-65.533
1574.400,-65.266
1574.410,-65.318
1574.420,-65.568
1574.430,-65.466
1574.440,-65.690
1574.450,-65.706
1574.460,-66.097
1574.470,-65.880
1574.480,-65.832
1574.490,-66.047
1574.500,-65.796
1574.510,-66.006
1574.520,-65.864
1574.530,-65.916
1574.540,-65.605
1574.550,-65.585
1574.560,-65.566
1574.570,-65.685
1574.580,-65.758
1574.590,-65.439
1574.600,-65.035
1574.610,-65.111
1574.620,-65.246
1574.630,-64.912
1574.640,-64.826
1574.650,-64.769
1574.660,-64.791
1574.670,-64.786
1574.680,-64.924
1574.690,-64.635
1574.700,-64.906
1574.710,-64.758
1574.720,-65.033
1574.730,-65.015
1574.740,-65.034
1574.750,-65.297
1574.760,-65.188
1574.770,-65.232
1574.780,-65.402
1574.790,-65.673
1574.800,-65.636
1574.810,-65.737
1574.820,-65.865
1574.830,-65.961
1574.840,-66.208
1574.850,-66.118
1574.860,-66.012
1574.870,-66.030
1574.880,-66.148
1574.890,-66.037
1574.900,-66.053
1574.910,-65.982
1574.920,-65.702
1574.930,-65.827
1574.940,-65.576
1574.950,-65.477
1574.960,-65.377
1574.970,-65.255
1574.980,-65.104
1574.990,-65.205
1575.000,-64.928
1575.010,-64.743
1575.020,-64.774
1575.030,-64.563
1575.040,-64.592
1575.050,-64.575
1575.060,-64.398
1575.070,-64.476
1575.080,-64.597
1575.090,-64.631
1575.100,-64.789
1575.110,-64.933
1575.120,-64.988
1575.130,-65.169
1575.140,-65.313
1575.150,-65.202
1575.160,-65.685
1575.170,-65.727
1575.180,-65.814
1575.190,-65.841
1575.200,-66.218
1575.210,-66.280
1575.220,-66.237
1575.230,-66.188
1575.240,-66.289
1575.250,-66.397
1575.260,-66.398
1575.270,-66.493
1575.280,-66.375
1575.290,-66.270
1575.300,-66.141
1575.310,-66.070
1575.320,-65.925
1575.330,-65.992
1575.340,-65.615
1575.350,-65.611
1575.360,-65.467
1575.370,-65.239
1575.380,-65.133
1575.390,-65.181
1575.400,-64.905
1575.410,-64.749
1575.420,-64.613
1575.430,-64.592
1575.440,-64.562
1575.450,-64.529
1575.460,-64.564
1575.470,-64.592
1575.480,-64.631
1575.490,-64.776
1575.500,-64.812
1575.510,-64.890
1575.520,-65.004
1575.530,-65.085
1575.540,-65.434
1575.550,-65.614
1575.560,-65.841
1575.570,-65.849
1575.580,-66.099
1575.590,-66.127
1575.600,-66.217
1575.610,-66.399
1575.620,-66.334
1575.630,-66.610
1575.640,-66.686
1575.650,-66.280
1575.660,-66.572
1575.670,-66.488
1575.680,-66.449
1575.690,-66.500
1575.700,-66.284
1575.710,-66.171
1575.720,-66.050
1575.730,-65.895
1575.740,-65.714
1575.750,-65.663
1575.760,-65.337
1575.770,-65.145
1575.780,-65.090
1575.790,-64.988
1575.800,-64.761
1575.810,-64.634
1575.820,-64.512
1575.830,-64.464
1575.840,-64.611
1575.850,-64.461
1575.860,-64.439
1575.870,-64.657
1575.880,-64.779
1575.890,-64.811
1575.900,-64.972
1575.910,-65.208
1575.920,-65.419
1575.930,-65.571
1575.940,-65.723
1575.950,-65.979
1575.960,-66.114
1575.970,-66.165
1575.980,-66.135
1575.990,-66.418
1576.000,-66.548
1576.010,-66.830
1576.020,-66.746
1576.030,-66.613
1576.040,-66.784
1576.050,-66.816
1576.060,-66.670
1576.070,-66.689
1576.080,-66.707
1576.090,-66.457
1576.100,-66.354
1576.110,-66.449
1576.120,-66.275
1576.130,-65.821
1576.140,-66.084
1576.150,-65.709
1576.160,-65.579
1576.170,-65.393
1576.180,-65.396
1576.190,-65.148
1576.200,-64.983
1576.210,-65.043
1576.220,-64.937
1576.230,-64.910
1576.240,-64.935
1576.250,-65.051
1576.260,-64.827
1576.270,-64.933
1576.280,-65.199
1576.290,-65.323
1576.300,-65.436
1576.310,-65.589
1576.320,-65.623
1576.330,-65.816
1576.340,-65.952
1576.350,-66.106
1576.360,-66.362
1576.370,-65.952
1576.380,-66.322
1576.390,-66.405
1576.400,-66.479
1576.410,-66.572
1576.420,-66.613
1576.430,-66.545
1576.440,-66.564
1576.450,-66.364
1576.460,-66.385
1576.470,-66.297
1576.480,-66.152
1576.490,-66.199
1576.500,-65.929
1576.510,-65.886
1576.520,-65.820
1576.530,-65.668
1576.540,-65.557
1576.550,-65.399
1576.560,-65.362
1576.570,-65.542
1576.580,-65.293
1576.590,-65.452
1576.600,-65.377
1576.610,-65.445
1576.620,-65.546
1576.630,-65.549
1576.640,-65.819
1576.650,-65.560
1576.660,-65.718
1576.670,-65.898
1576.680,-66.057
1576.690,-65.859
1576.700,-65.954
1576.710,-66.149
1576.720,-66.360
1576.730,-66.351
1576.740,-66.288
1576.750,-66.469
1576.760,-66.515
1576.770,-66.475
1576.780,-66.371
1576.790,-66.403
1576.800,-66.261
1576.810,-66.334
1576.820,-66.407
1576.830,-65.842
1576.840,-65.881
1576.850,-65.849
1576.860,-65.617
1576.870,-65.533
1576.880,-65.510
1576.890,-65.405
1576.900,-65.207
1576.910,-65.437
1576.920,-65.488
1576.930,-65.407
1576.940,-65.307
1576.950,-65.185
1576.960,-65.422
1576.970,-65.495
1576.980,-65.570
1576.990,-65.798
1577.000,-65.785
1577.010,-65.882
1577.020,-66.222
1577.030,-66.240
1577.040,-66.248
1577.050,-66.603
1577.060,-66.568
1577.070,-66.629
1577.080,-66.732
1577.090,-66.889
1577.100,-66.884
1577.110,-66.790
1577.120,-66.883
1577.130,-67.091
1577.140,-66.938
1577.150,-66.714
1577.160,-66.558
1577.170,-66.475
1577.180,-66.402
1577.190,-66.053
1577.200,-66.166
1577.210,-65.933
1577.220,-65.604
1577.230,-65.386
1577.240,-65.291
1577.250,-65.072
1577.260,-65.015
1577.270,-64.770
1577.280,-64.675
1577.290,-64.593
1577.300,-64.699
1577.310,-64.862
1577.320,-64.744
1577.330,-64.935
1577.340,-65.025
1577.350,-65.220
1577.360,-65.508
1577.370,-65.831
1577.380,-65.938
1577.390,-66.162
1577.400,-66.411
1577.410,-66.720
1577.420,-66.737
1577.430,-66.863
1577.440,-67.241
1577.450,-67.351
1577.460,-67.445
1577.470,-67.584
1577.480,-67.529
1577.490,-67.609
1577.500,-67.398
1577.510,-67.339
1577.520,-67.513
1577.530,-67.483
1577.540,-66.834
1577.550,-66.994
1577.560,-66.603
1577.570,-66.735
1577.580,-66.423
1577.590,-65.838
1577.600,-65.979
1577.610,-65.483
1577.620,-65.343
1577.630,-64.983
1577.640,-64.693
1577.650,-64.702
1577.660,-64.496
1577.670,-64.274
1577.680,-64.202
1577.690,-64.325
1577.700,-64.400
1577.710,-64.624
1577.720,-64.709
1577.730,-65.074
1577.740,-65.021
1577.750,-65.591
1577.760,-65.741
1577.770,-65.806
1577.780,-66.339
1577.790,-66.556
1577.800,-66.734
1577.810,-66.812
1577.820,-67.214
1577.830,-67.271
1577.840,-67.430
1577.850,-67.419
1577.860,-67.547
1577.870,-67.605
1577.880,-67.523
1577.890,-67.578
1577.900,-67.424
1577.910,-67.393
1577.920,-67.374
1577.930,-67.569
1577.940,-67.171
1577.950,-66.808
1577.960,-66.350
1577.970,-66.592
1577.980,-66.271
1577.990,-65.886
1578.000,-65.673
1578.010,-65.462
1578.020,-65.287
1578.030,-65.135
1578.040,-64.936
1578.050,-64.679
1578.060,-64.712
1578.070,-64.517
1578.080,-64.676
1578.090,-64.612
1578.100,-64.931
1578.110,-65.111
1578.120,-65.168
1578.130,-65.478
1578.140,-65.571
1578.150,-66.000
1578.160,-66.234
1578.170,-66.706
1578.180,-66.748
1578.190,-66.985
1578.200,-67.071
1578.210,-67.435
1578.220,-67.257
1578.230,-68.015
1578.240,-67.510
1578.250,-67.666
1578.260,-67.688
1578.270,-67.649
1578.280,-67.417
1578.290,-67.501
1578.300,-67.758
1578.310,-67.424
1578.320,-67.355
1578.330,-67.249
1578.340,-67.327
1578.350,-67.001
1578.360,-66.801
1578.370,-66.485
1578.380,-66.381
1578.390,-66.147
1578.400,-66.036
1578.410,-66.064
1578.420,-65.611
1578.430,-65.612
1578.440,-65.413
1578.450,-65.280
1578.460,-65.277
1578.470,-65.279
1578.480,-65.254
1578.490,-65.330
1578.500,-65.340
1578.510,-65.603
1578.520,-65.424
1578.530,-65.614
1578.540,-65.769
1578.550,-65.895
1578.560,-66.105
1578.570,-66.413
1578.580,-66.286
1578.590,-66.477
1578.600,-66.580
1578.610,-66.761
1578.620,-66.683
1578.630,-66.614
1578.640,-66.754
1578.650,-66.635
1578.660,-66.947
1578.670,-66.702
1578.680,-66.646
1578.690,-66.662
1578.700,-66.606
1578.710,-66.595
1578.720,-66.458
1578.730,-66.754
1578.740,-66.297
1578.750,-66.397
1578.760,-66.615
1578.770,-66.487
1578.780,-66.823
1578.790,-66.640
1578.800,-66.765
1578.810,-66.656
1578.820,-66.606
1578.830,-66.656
1578.840,-66.871
1578.850,-66.999
1578.860,-66.770
1578.870,-66.741
1578.880,-66.657
1578.890,-66.739
1578.900,-66.712
1578.910,-67.045
1578.920,-66.939
1578.930,-66.947
1578.940,-66.573
1578.950,-66.577
1578.960,-66.607
1578.970,-66.575
1578.980,-66.592
1578.990,-66.619
1579.000,-66.607
1579.010,-66.549
1579.020,-66.166
1579.030,-66.323
1579.040,-66.071
1579.050,-66.000
1579.060,-65.933
1579.070,-65.928
1579.080,-65.778
1579.090,-65.978
1579.100,-65.952
1579.110,-65.955
1579.120,-66.161
1579.130,-66.230
1579.140,-66.405
1579.150,-66.436
1579.160,-66.689
1579.170,-66.737
1579.180,-66.779
1579.190,-67.140
1579.200,-66.932
1579.210,-67.138
1579.220,-67.195
1579.230,-67.658
1579.240,-67.731
1579.250,-67.330
1579.260,-67.489
1579.270,-67.231
1579.280,-67.178
1579.290,-67.292
1579.300,-67.269
1579.310,-67.292
1579.320,-66.990
1579.330,-66.724
1579.340,-66.532
1579.350,-66.115
1579.360,-66.015
1579.370,-65.659
1579.380,-65.350
1579.390,-65.005
1579.400,-64.694
1579.410,-64.314
1579.420,-64.139
1579.430,-63.924
1579.440,-63.875
1579.450,-63.760
1579.460,-63.975
1579.470,-64.211
1579.480,-64.687
1579.490,-64.938
1579.500,-65.366
1579.510,-66.227
1579.520,-66.621
1579.530,-66.999
1579.540,-67.467
1579.550,-67.987
1579.560,-68.204
1579.570,-68.335
1579.580,-68.747
1579.590,-69.318
1579.600,-70.285
1579.610,-69.865
1579.620,-70.114
1579.630,-70.052
1579.640,-70.366
1579.650,-70.322
1579.660,-70.818
1579.670,-71.625
1579.680,-71.686
1579.690,-71.145
1579.700,-71.197
1579.710,-70.930
1579.720,-70.510
1579.730,-71.185
1579.740,-71.250
1579.750,-70.300
1579.760,-70.451
1579.770,-70.346
1579.780,-70.585
1579.790,-69.737
1579.800,-69.766
1579.810,-69.004
1579.820,-68.899
1579.830,-67.963
1579.840,-67.878
1579.850,-67.274
1579.860,-66.767
1579.870,-66.701
1579.880,-65.691
1579.890,-66.112
1579.900,-65.130
1579.910,-63.687
1579.920,-61.902
1579.930,-59.686
1579.940,-57.781
1579.950,-55.391
1579.960,-53.071
1579.970,-50.761
1579.980,-47.835
1579.990,-42.881
1580.000,-34.313
1580.010,-29.535
1580.020,-25.218
1580.030,-22.383
1580.040,-16.293
1580.050,-6.886
1580.060,-4.004
1580.070,-3.723
1580.080,-4.153
1580.090,-7.921
1580.100,-15.706
1580.110,-18.745
1580.120,-23.722
1580.130,-27.922
1580.140,-34.149
1580.150,-42.561
1580.160,-47.358
1580.170,-50.522
1580.180,-53.167
1580.190,-55.289
1580.200,-56.755
1580.210,-58.215
1580.220,-59.706
1580.230,-61.225
1580.240,-62.215
1580.250,-62.940
1580.260,-63.643
1580.270,-64.187
1580.280,-64.594
1580.290,-65.034
1580.300,-65.069
1580.310,-65.403
1580.320,-65.559
1580.330,-65.648
1580.340,-65.926
1580.350,-65.983
1580.360,-66.004
1580.370,-65.795
1580.380,-66.093
1580.390,-65.855
1580.400,-65.811
1580.410,-65.443
1580.420,-65.207
1580.430,-65.147
1580.440,-64.830
1580.450,-64.537
1580.460,-64.083
1580.470,-63.846
1580.480,-63.525
1580.490,-63.028
1580.500,-62.531
1580.510,-62.048
1580.520,-61.531
1580.530,-61.192
1580.540,-60.907
1580.550,-60.611
1580.560,-60.419
1580.570,-60.342
1580.580,-60.462
1580.590,-60.572
1580.600,-60.805
1580.610,-61.156
1580.620,-61.558
1580.630,-62.137
1580.640,-62.486
1580.650,-63.087
1580.660,-63.601
1580.670,-63.989
1580.680,-64.259
1580.690,-64.844
1580.700,-65.196
1580.710,-65.581
1580.720,-65.750
1580.730,-66.192
1580.740,-66.439
1580.750,-66.430
1580.760,-66.721
1580.770,-66.952
1580.780,-66.998
1580.790,-67.107
1580.800,-67.135
1580.810,-67.165
1580.820,-66.999
1580.830,-67.214
1580.840,-67.241
1580.850,-67.063
1580.860,-66.731
1580.870,-66.925
1580.880,-66.772
1580.890,-66.353
1580.900,-66.255
1580.910,-65.969
1580.920,-65.900
1580.930,-65.282
1580.940,-64.994
1580.950,-64.545
1580.960,-64.218
1580.970,-63.855
1580.980,-63.384
1580.990,-62.917
1581.000,-62.418
1581.010,-62.137
1581.020,-61.766
1581.030,-61.558
1581.040,-61.422
1581.050,-61.485
1581.060,-61.567
1581.070,-61.751
1581.080,-62.190
1581.090,-62.520
1581.100,-62.942
1581.110,-63.298
1581.120,-63.748
1581.130,-64.270
1581.140,-64.672
1581.150,-65.045
1581.160,-65.373
1581.170,-65.740
1581.180,-66.298
1581.190,-66.317
1581.200,-66.542
1581.210,-66.757
1581.220,-66.944
1581.230,-67.288
1581.240,-66.933
1581.250,-67.106
1581.260,-67.195
1581.270,-67.194
1581.280,-67.287
1581.290,-67.453
1581.300,-67.139
1581.310,-66.832
1581.320,-66.585
1581.330,-66.512
1581.340,-66.361
1581.350,-66.094
1581.360,-65.751
1581.370,-65.493
1581.380,-65.005
1581.390,-64.699
1581.400,-64.344
1581.410,-64.246
1581.420,-63.708
1581.430,-63.414
1581.440,-63.207
1581.450,-63.146
1581.460,-62.870
1581.470,-62.888
1581.480,-62.999
1581.490,-63.110
1581.500,-63.258
1581.510,-63.641
1581.520,-63.754
1581.530,-64.026
1581.540,-64.478
1581.550,-64.927
1581.560,-65.290
1581.570,-65.510
1581.580,-65.861
1581.590,-66.022
1581.600,-66.195
1581.610,-66.585
1581.620,-66.681
1581.630,-67.109
1581.640,-67.036
1581.650,-67.250
1581.660,-67.265
1581.670,-67.199
1581.680,-67.503
1581.690,-67.054
1581.700,-67.357
1581.710,-66.967
1581.720,-67.295
1581.730,-66.957
1581.740,-66.639
1581.750,-66.573
1581.760,-66.239
1581.770,-66.040
1581.780,-65.662
1581.790,-65.369
1581.800,-65.190
1581.810,-65.026
1581.820,-64.660
1581.830,-64.309
1581.840,-64.084
1581.850,-63.897
1581.860,-63.722
1581.870,-63.735
1581.880,-63.690
1581.890,-63.800
1581.900,-63.907
1581.910,-63.870
1581.920,-64.243
1581.930,-64.382
1581.940,-64.689
1581.950,-64.976
1581.960,-64.999
1581.970,-65.336
1581.980,-65.865
1581.990,-65.842
1582.000,-65.924
1582.010,-65.942
1582.020,-66.418
1582.030,-66.631
1582.040,-66.629
1582.050,-66.640
1582.060,-66.701
1582.070,-66.569
1582.080,-66.911
1582.090,-66.681
1582.100,-66.552
1582.110,-66.636
1582.120,-66.391
1582.130,-66.452
1582.140,-66.294
1582.150,-66.098
1582.160,-65.981
1582.170,-65.736
1582.180,-65.703
1582.190,-65.498
1582.200,-65.328
1582.210,-65.272
1582.220,-65.110
1582.230,-65.188
1582.240,-65.186
1582.250,-65.165
1582.260,-65.122
1582.270,-65.219
1582.280,-65.257
1582.290,-65.280
1582.300,-65.303
1582.310,-65.444
1582.320,-65.553
1582.330,-65.720
1582.340,-65.692
1582.350,-65.879
1582.360,-65.814
1582.370,-65.803
1582.380,-65.989
1582.390,-65.996
1582.400,-65.949
1582.410,-66.125
1582.420,-65.926
1582.430,-65.937
1582.440,-65.891
1582.450,-65.871
1582.460,-65.742
1582.470,-65.766
1582.480,-65.710
1582.490,-65.652
1582.500,-65.533
1582.510,-65.529
1582.520,-65.358
1582.530,-65.255
1582.540,-65.193
1582.550,-65.202
1582.560,-65.079
1582.570,-65.315
1582.580,-65.249
1582.590,-65.248
1582.600,-65.377
1582.610,-65.584
1582.620,-65.625
1582.630,-65.800
1582.640,-65.801
1582.650,-66.114
1582.660,-66.105
1582.670,-66.393
1582.680,-66.359
1582.690,-66.620
1582.700,-66.612
1582.710,-66.864
1582.720,-66.761
1582.730,-66.807
1582.740,-66.954
1582.750,-66.638
1582.760,-66.636
1582.770,-66.377
1582.780,-66.867
1582.790,-66.340
1582.800,-66.400
1582.810,-66.247
1582.820,-66.046
1582.830,-65.758
1582.840,-65.803
1582.850,-65.423
1582.860,-65.246
1582.870,-65.114
1582.880,-64.930
1582.890,-64.787
1582.900,-64.749
1582.910,-64.545
1582.920,-64.498
1582.930,-64.467
1582.940,-64.319
1582.950,-64.669
1582.960,-64.659
1582.970,-64.682
1582.980,-64.957
1582.990,-65.015
1583.000,-65.439
1583.010,-65.755
1583.020,-65.853
1583.030,-66.033
1583.040,-66.330
1583.050,-66.531
1583.060,-66.918
1583.070,-66.769
1583.080,-67.036
1583.090,-66.988
1583.100,-67.123
1583.110,-67.355
1583.120,-67.716
1583.130,-67.483
1583.140,-67.458
1583.150,-67.260
1583.160,-67.396
1583.170,-67.013
1583.180,-67.047
1583.190,-66.708
1583.200,-66.569
1583.210,-66.320
1583.220,-66.331
1583.230,-65.785
1583.240,-65.575
1583.250,-65.459
1583.260,-64.871
1583.270,-64.860
1583.280,-64.527
1583.290,-64.288
1583.300,-64.141
1583.310,-64.075
1583.320,-64.119
1583.330,-64.079
1583.340,-64.123
1583.350,-64.393
1583.360,-64.527
1583.370,-64.934
1583.380,-65.130
1583.390,-65.402
1583.400,-65.765
1583.410,-66.100
1583.420,-66.056
1583.430,-66.393
1583.440,-66.853
1583.450,-66.844
1583.460,-67.111
1583.470,-67.367
1583.480,-67.321
1583.490,-67.359
1583.500,-67.711
1583.510,-67.540
1583.520,-67.663
1583.530,-67.493
1583.540,-67.422
1583.550,-67.054
1583.560,-67.222
1583.570,-67.201
1583.580,-66.687
1583.590,-66.632
1583.600,-66.464
1583.610,-66.235
1583.620,-66.077
1583.630,-65.918
1583.640,-65.406
1583.650,-65.348
1583.660,-65.111
1583.670,-64.858
1583.680,-64.607
1583.690,-64.378
1583.700,-64.454
1583.710,-64.491
1583.720,-64.527
1583.730,-64.478
1583.740,-64.692
1583.750,-64.920
1583.760,-65.175
1583.770,-65.344
1583.780,-65.603
1583.790,-66.055
1583.800,-66.047
1583.810,-66.254
1583.820,-66.480
1583.830,-66.463
1583.840,-67.214
1583.850,-67.195
1583.860,-67.368
1583.870,-67.399
1583.880,-67.590
1583.890,-67.457
1583.900,-67.509
1583.910,-67.712
1583.920,-67.302
1583.930,-67.165
1583.940,-67.374
1583.950,-67.172
1583.960,-67.272
1583.970,-66.709
1583.980,-66.588
1583.990,-66.423
1584.000,-66.344
1584.010,-66.033
1584.020,-65.673
1584.030,-65.548
1584.040,-65.164
1584.050,-65.094
1584.060,-65.149
1584.070,-65.092
1584.080,-64.987
1584.090,-64.838
1584.100,-64.921
1584.110,-65.262
1584.120,-65.024
1584.130,-65.228
1584.140,-65.516
1584.150,-65.667
1584.160,-65.828
1584.170,-66.126
1584.180,-66.275
1584.190,-66.323
1584.200,-66.553
1584.210,-66.786
1584.220,-67.101
1584.230,-66.942
1584.240,-67.247
1584.250,-67.181
1584.260,-67.331
1584.270,-67.333
1584.280,-67.361
1584.290,-67.410
1584.300,-67.121
1584.310,-67.040
1584.320,-66.907
1584.330,-67.104
1584.340,-67.046
1584.350,-66.799
1584.360,-66.432
1584.370,-66.569
1584.380,-66.175
1584.390,-66.259
1584.400,-66.007
1584.410,-65.751
1584.420,-65.769
1584.430,-65.728
1584.440,-65.664
1584.450,-65.559
1584.460,-65.748
1584.470,-65.779
1584.480,-65.768
1584.490,-65.889
1584.500,-65.909
1584.510,-66.180
1584.520,-65.969
1584.530,-66.244
1584.540,-66.392
1584.550,-66.476
1584.560,-66.646
1584.570,-66.842
1584.580,-66.748
1584.590,-66.869
1584.600,-67.103
1584.610,-66.943
1584.620,-67.046
1584.630,-67.101
1584.640,-67.027
1584.650,-66.921
1584.660,-66.937
1584.670,-67.040
1584.680,-66.783
1584.690,-66.742
1584.700,-66.532
1584.710,-66.690
1584.720,-66.561
1584.730,-66.453
1584.740,-66.010
1584.750,-66.122
1584.760,-65.984
1584.770,-65.959
1584.780,-65.840
1584.790,-65.623
1584.800,-66.038
1584.810,-66.000
1584.820,-65.948
1584.830,-65.891
1584.840,-66.097
1584.850,-66.154
1584.860,-66.274
1584.870,-66.345
1584.880,-66.296
1584.890,-66.781
1584.900,-66.703
1584.910,-66.934
1584.920,-66.889
1584.930,-67.131
1584.940,-67.200
1584.950,-67.281
1584.960,-67.146
1584.970,-67.129
1584.980,-67.187
1584.990,-67.097
1585.000,-67.104
1585.010,-67.239
1585.020,-67.312
1585.030,-67.402
1585.040,-67.145
1585.050,-67.016
1585.060,-66.684
1585.070,-66.418
1585.080,-66.659
1585.090,-66.503
1585.100,-66.150
1585.110,-66.191
1585.120,-65.974
1585.130,-66.062
1585.140,-65.744
1585.150,-65.739
1585.160,-65.827
1585.170,-65.765
1585.180,-65.812
1585.190,-65.765
1585.200,-65.829
1585.210,-65.781
1585.220,-65.950
1585.230,-66.053
1585.240,-66.259
1585.250,-66.386
1585.260,-66.463
1585.270,-66.608
1585.280,-66.729
1585.290,-66.863
1585.300,-66.817
1585.310,-67.126
1585.320,-66.928
1585.330,-67.270
1585.340,-67.522
1585.350,-67.661
1585.360,-67.541
1585.370,-67.599
1585.380,-67.615
1585.390,-67.578
1585.400,-67.687
1585.410,-67.458
1585.420,-67.225
1585.430,-67.180
1585.440,-67.183
1585.450,-66.959
1585.460,-66.969
1585.470,-66.659
1585.480,-66.446
1585.490,-66.130
1585.500,-66.079
1585.510,-65.791
1585.520,-65.849
1585.530,-65.860
1585.540,-65.803
1585.550,-65.665
1585.560,-65.708
1585.570,-65.541
1585.580,-65.543
1585.590,-65.496
1585.600,-65.780
1585.610,-65.973
1585.620,-66.016
1585.630,-66.116
1585.640,-66.097
1585.650,-66.410
1585.660,-66.552
1585.670,-66.616
1585.680,-66.855
1585.690,-67.338
1585.700,-67.300
1585.710,-67.341
1585.720,-67.408
1585.730,-67.467
1585.740,-67.646
1585.750,-67.504
1585.760,-67.426
1585.770,-67.805
1585.780,-67.497
1585.790,-67.439
1585.800,-67.478
1585.810,-67.583
1585.820,-67.228
1585.830,-67.593
1585.840,-67.208
1585.850,-67.147
1585.860,-66.822
1585.870,-66.758
1585.880,-66.519
1585.890,-66.616
1585.900,-66.326
1585.910,-66.347
1585.920,-66.006
1585.930,-65.878
1585.940,-65.825
1585.950,-65.750
1585.960,-65.936
1585.970,-65.589
1585.980,-65.620
1585.990,-65.591
1586.000,-65.761
1586.010,-65.874
1586.020,-65.867
1586.030,-66.055
1586.040,-66.248
1586.050,-66.356
1586.060,-66.555
1586.070,-66.630
1586.080,-66.885
1586.090,-67.125
1586.100,-66.815
1586.110,-67.268
1586.120,-67.264
1586.130,-67.481
1586.140,-67.534
1586.150,-67.387
1586.160,-67.484
1586.170,-67.486
1586.180,-67.525
1586.190,-67.584
1586.200,-67.645
1586.210,-67.300
1586.220,-67.113
1586.230,-67.245
1586.240,-67.435
1586.250,-67.115
1586.260,-66.861
1586.270,-66.851
1586.280,-66.713
1586.290,-66.473
1586.300,-66.293
1586.310,-66.314
1586.320,-66.121
1586.330,-66.028
1586.340,-66.063
1586.350,-66.021
1586.360,-66.093
1586.370,-65.958
1586.380,-65.835
1586.390,-65.943
1586.400,-66.065
1586.410,-66.416
1586.420,-66.296
1586.430,-66.373
1586.440,-66.444
1586.450,-66.712
1586.460,-66.762
1586.470,-66.944
1586.480,-66.967
1586.490,-67.259
1586.500,-67.592
1586.510,-67.773
1586.520,-67.436
1586.530,-67.624
1586.540,-67.340
1586.550,-67.436
1586.560,-67.628
1586.570,-67.525
1586.580,-67.564
1586.590,-67.154
1586.600,-67.481
1586.610,-67.404
1586.620,-66.920
1586.630,-67.154
1586.640,-67.208
1586.650,-66.999
1586.660,-66.573
1586.670,-66.688
1586.680,-66.732
1586.690,-66.401
1586.700,-66.646
1586.710,-66.315
1586.720,-66.067
1586.730,-66.277
1586.740,-66.153
1586.750,-66.384
1586.760,-66.429
1586.770,-66.417
1586.780,-66.330
1586.790,-66.511
1586.800,-66.620
1586.810,-66.730
1586.820,-66.779
1586.830,-66.758
1586.840,-66.954
1586.850,-67.381
1586.860,-67.728
1586.870,-67.351
1586.880,-67.750
1586.890,-67.600
1586.900,-67.510
1586.910,-67.381
1586.920,-67.689
1586.930,-67.396
1586.940,-67.610
1586.950,-67.358
1586.960,-67.577
1586.970,-67.510
1586.980,-67.543
1586.990,-67.481
1587.000,-67.318
1587.010,-67.237
1587.020,-67.096
1587.030,-67.142
1587.040,-67.119
1587.050,-66.807
1587.060,-66.709
1587.070,-66.541
1587.080,-66.469
1587.090,-66.606
1587.100,-66.392
1587.110,-66.465
1587.120,-66.341
1587.130,-66.378
1587.140,-66.737
1587.150,-66.552
1587.160,-66.669
1587.170,-66.850
1587.180,-66.870
1587.190,-67.171
1587.200,-67.367
1587.210,-67.608
1587.220,-67.279
1587.230,-67.613
1587.240,-67.543
1587.250,-67.861
1587.260,-68.025
1587.270,-68.129
1587.280,-68.051
1587.290,-67.713
1587.300,-67.873
1587.310,-68.100
1587.320,-67.768
1587.330,-68.206
1587.340,-67.636
1587.350,-67.713
1587.360,-67.398
1587.370,-67.072
1587.380,-67.279
1587.390,-66.984
1587.400,-67.170
1587.410,-66.851
1587.420,-66.535
1587.430,-66.655
1587.440,-66.563
1587.450,-66.436
1587.460,-66.323
1587.470,-66.386
1587.480,-66.318
1587.490,-66.489
1587.500,-66.452
1587.510,-66.561
1587.520,-66.487
1587.530,-66.676
1587.540,-66.871
1587.550,-67.041
1587.560,-67.179
1587.570,-67.441
1587.580,-67.282
1587.590,-67.611
1587.600,-67.709
1587.610,-68.081
1587.620,-67.820
1587.630,-67.978
1587.640,-68.124
1587.650,-68.390
1587.660,-68.247
1587.670,-68.121
1587.680,-67.977
1587.690,-68.077
1587.700,-68.128
1587.710,-68.151
1587.720,-67.826
1587.730,-67.735
1587.740,-67.637
1587.750,-67.304
1587.760,-67.146
1587.770,-67.145
1587.780,-66.630
1587.790,-66.662
1587.800,-66.813
1587.810,-66.528
1587.820,-66.401
1587.830,-66.351
1587.840,-66.135
1587.850,-66.147
1587.860,-65.987
1587.870,-66.240
1587.880,-66.318
1587.890,-66.301
1587.900,-66.541
1587.910,-66.765
1587.920,-66.831
1587.930,-66.998
1587.940,-67.313
1587.950,-67.523
1587.960,-67.729
1587.970,-67.773
1587.980,-67.938
1587.990,-68.178
1588.000,-67.956
1588.010,-68.643
1588.020,-68.522
1588.030,-68.209
1588.040,-68.669
1588.050,-68.644
1588.060,-68.557
1588.070,-68.371
1588.080,-68.231
1588.090,-68.292
1588.100,-68.332
1588.110,-68.068
1588.120,-67.780
1588.130,-67.692
1588.140,-67.492
1588.150,-67.182
1588.160,-67.104
1588.170,-66.960
1588.180,-66.539
1588.190,-66.253
1588.200,-66.298
1588.210,-66.106
1588.220,-66.056
1588.230,-65.927
1588.240,-66.107
1588.250,-65.971
1588.260,-66.335
1588.270,-66.131
1588.280,-66.416
1588.290,-66.536
1588.300,-66.782
1588.310,-66.969
1588.320,-67.284
1588.330,-67.348
1588.340,-67.457
1588.350,-67.766
1588.360,-67.802
1588.370,-68.082
1588.380,-68.113
1588.390,-68.116
1588.400,-68.343
1588.410,-68.342
1588.420,-68.622
1588.430,-68.530
1588.440,-68.546
1588.450,-68.721
1588.460,-68.603
1588.470,-68.319
1588.480,-68.506
1588.490,-68.223
1588.500,-67.874
1588.510,-67.669
1588.520,-67.582
1588.530,-67.154
1588.540,-67.447
1588.550,-66.992
1588.560,-67.123
1588.570,-66.758
1588.580,-66.523
1588.590,-66.437
1588.600,-66.439
1588.610,-66.389
1588.620,-66.564
1588.630,-66.168
1588.640,-66.417
1588.650,-66.384
1588.660,-66.611
1588.670,-66.787
1588.680,-66.966
1588.690,-66.880
1588.700,-67.185
1588.710,-67.535
1588.720,-67.849
1588.730,-67.707
1588.740,-67.878
1588.750,-68.178
1588.760,-68.229
1588.770,-68.413
1588.780,-68.662
1588.790,-68.260
1588.800,-68.231
1588.810,-68.564
1588.820,-68.645
1588.830,-68.455
1588.840,-68.388
1588.850,-67.998
1588.860,-68.337
1588.870,-67.922
1588.880,-67.903
1588.890,-67.595
1588.900,-67.480
1588.910,-67.680
1588.920,-67.260
1588.930,-66.998
1588.940,-66.785
1588.950,-66.818
1588.960,-66.680
1588.970,-66.610
1588.980,-66.615
1588.990,-66.682
1589.000,-66.545
1589.010,-66.544
1589.020,-66.692
1589.030,-66.716
1589.040,-67.095
1589.050,-67.097
1589.060,-67.196
1589.070,-67.170
1589.080,-67.519
1589.090,-67.698
1589.100,-67.936
1589.110,-67.688
1589.120,-68.153
1589.130,-68.231
1589.140,-68.429
1589.150,-68.663
1589.160,-68.619
1589.170,-68.396
1589.180,-68.311
1589.190,-68.454
1589.200,-68.616
1589.210,-68.219
1589.220,-68.021
1589.230,-67.885
1589.240,-68.060
1589.250,-67.571
1589.260,-67.729
1589.270,-67.527
1589.280,-67.413
1589.290,-67.283
1589.300,-67.267
1589.310,-67.239
1589.320,-66.904
1589.330,-66.720
1589.340,-67.031
1589.350,-66.517
1589.360,-66.744
1589.370,-66.736
1589.380,-66.784
1589.390,-67.193
1589.400,-66.905
1589.410,-66.848
1589.420,-67.532
1589.430,-67.779
1589.440,-67.520
1589.450,-67.666
1589.460,-68.010
1589.470,-67.947
1589.480,-68.272
1589.490,-68.311
1589.500,-68.174
1589.510,-68.534
1589.520,-68.655
1589.530,-68.701
1589.540,-68.850
1589.550,-68.728
1589.560,-68.781
1589.570,-68.669
1589.580,-68.388
1589.590,-68.481
1589.600,-68.169
1589.610,-68.267
1589.620,-67.922
1589.630,-68.171
1589.640,-67.753
1589.650,-67.685
1589.660,-67.500
1589.670,-67.103
1589.680,-67.252
1589.690,-67.113
1589.700,-67.120
1589.710,-66.434
1589.720,-66.952
1589.730,-66.806
1589.740,-66.790
1589.750,-66.975
1589.760,-67.016
1589.770,-67.035
1589.780,-67.356
1589.790,-67.532
1589.800,-67.680
1589.810,-67.947
1589.820,-68.210
1589.830,-68.085
1589.840,-68.603
1589.850,-68.423
1589.860,-68.570
1589.870,-68.739
1589.880,-68.649
1589.890,-68.876
1589.900,-68.875
1589.910,-68.889
1589.920,-69.357
1589.930,-68.941
1589.940,-68.629
1589.950,-68.789
1589.960,-68.402
1589.970,-68.614
1589.980,-68.550
1589.990,-68.368
1590.000,-68.593
1590.010,-68.190
1590.020,-67.748
1590.030,-67.675
1590.040,-67.475
1590.050,-67.416
1590.060,-67.624
1590.070,-67.081
1590.080,-67.045
1590.090,-67.031
1590.100,-66.984
1590.110,-67.054
1590.120,-67.186
1590.130,-67.072
1590.140,-66.940
1590.150,-67.242
1590.160,-67.365
1590.170,-67.776
1590.180,-67.479
1590.190,-67.839
1590.200,-67.798
1590.210,-68.248
1590.220,-68.266
1590.230,-68.449
1590.240,-68.603
1590.250,-68.506
1590.260,-68.872
1590.270,-69.139
1590.280,-69.311
1590.290,-69.061
1590.300,-69.024
1590.310,-68.836
1590.320,-69.097
1590.330,-68.988
1590.340,-68.661
1590.350,-68.778
1590.360,-68.442
1590.370,-68.311
1590.380,-68.085
1590.390,-67.935
1590.400,-68.089
1590.410,-67.627
1590.420,-67.768
1590.430,-67.759
1590.440,-67.090
1590.450,-67.288
1590.460,-67.199
1590.470,-67.191
1590.480,-66.932
1590.490,-67.423
1590.500,-67.045
1590.510,-67.355
1590.520,-67.311
1590.530,-67.639
1590.540,-67.226
1590.550,-68.099
1590.560,-67.700
1590.570,-68.164
1590.580,-68.048
1590.590,-68.210
1590.600,-68.058
1590.610,-68.463
1590.620,-68.634
1590.630,-68.760
1590.640,-68.828
1590.650,-68.690
1590.660,-68.647
1590.670,-68.948
1590.680,-68.979
1590.690,-68.905
1590.700,-69.124
1590.710,-69.123
1590.720,-69.100
1590.730,-68.711
1590.740,-68.920
1590.750,-68.407
1590.760,-68.187
1590.770,-68.452
1590.780,-68.240
1590.790,-68.258
1590.800,-68.024
1590.810,-67.835
1590.820,-67.757
1590.830,-67.687
1590.840,-67.491
1590.850,-67.597
1590.860,-67.579
1590.870,-67.525
1590.880,-67.408
1590.890,-67.390
1590.900,-67.765
1590.910,-67.383
1590.920,-67.492
1590.930,-67.377
1590.940,-67.784
1590.950,-67.886
1590.960,-68.096
1590.970,-68.210
1590.980,-68.037
1590.990,-68.287
1591.000,-68.671
1591.010,-68.462
1591.020,-68.456
1591.030,-68.800
1591.040,-68.534
1591.050,-68.707
1591.060,-69.072
1591.070,-68.595
1591.080,-69.324
1591.090,-68.851
1591.100,-68.563
1591.110,-68.110
1591.120,-68.579
1591.130,-68.259
1591.140,-68.844
1591.150,-68.602
1591.160,-68.258
1591.170,-67.988
1591.180,-68.031
1591.190,-68.042
1591.200,-67.964
1591.210,-67.717
1591.220,-67.438
1591.230,-67.769
1591.240,-67.565
1591.250,-67.656
1591.260,-67.584
1591.270,-67.336
1591.280,-67.676
1591.290,-67.624
1591.300,-67.758
1591.310,-68.125
1591.320,-67.960
1591.330,-67.955
1591.340,-68.108
1591.350,-68.231
1591.360,-68.379
1591.370,-68.404
1591.380,-68.767
1591.390,-68.155
1591.400,-68.921
1591.410,-68.920
1591.420,-68.535
1591.430,-68.864
1591.440,-68.648
1591.450,-68.738
1591.460,-68.590
1591.470,-68.579
1591.480,-68.445
1591.490,-68.787
1591.500,-68.486
1591.510,-69.085
1591.520,-68.391
1591.530,-68.445
1591.540,-68.263
1591.550,-68.308
1591.560,-68.465
1591.570,-68.128
1591.580,-67.835
1591.590,-68.075
1591.600,-67.401
1591.610,-68.134
1591.620,-67.783
1591.630,-67.735
1591.640,-67.889
1591.650,-67.874
1591.660,-67.277
1591.670,-68.020
1591.680,-67.814
1591.690,-67.951
1591.700,-67.653
1591.710,-68.125
1591.720,-67.855
1591.730,-68.456
1591.740,-68.258
1591.750,-68.652
1591.760,-68.537
1591.770,-68.593
1591.780,-68.464
1591.790,-68.691
1591.800,-68.884
1591.810,-68.999
1591.820,-68.746
1591.830,-68.790
1591.840,-68.925
1591.850,-68.861
1591.860,-68.636
1591.870,-68.960
1591.880,-69.034
1591.890,-68.740
1591.900,-68.538
1591.910,-68.761
1591.920,-68.667
1591.930,-68.549
1591.940,-68.024
1591.950,-68.011
1591.960,-68.379
1591.970,-67.928
1591.980,-67.872
1591.990,-67.731
1592.000,-67.944
