wavelength[nm],power[dBm]
1562.000,-63.282
1562.010,-63.432
1562.020,-63.778
1562.030,-63.940
1562.040,-64.112
1562.050,-64.322
1562.060,-64.358
1562.070,-64.474
1562.080,-64.589
1562.090,-64.644
1562.100,-64.642
1562.110,-64.550
1562.120,-64.536
1562.130,-64.506
1562.140,-64.482
1562.150,-64.221
1562.160,-64.047
1562.170,-63.862
1562.180,-63.799
1562.190,-63.452
1562.200,-63.252
1562.210,-62.963
1562.220,-62.748
1562.230,-62.464
1562.240,-62.237
1562.250,-62.080
1562.260,-61.914
1562.270,-61.926
1562.280,-61.898
1562.290,-61.912
1562.300,-62.063
1562.310,-62.173
1562.320,-62.334
1562.330,-62.530
1562.340,-62.751
1562.350,-63.012
1562.360,-63.263
1562.370,-63.597
1562.380,-63.651
1562.390,-63.956
1562.400,-64.151
1562.410,-64.205
1562.420,-64.385
1562.430,-64.637
1562.440,-64.701
1562.450,-64.627
1562.460,-64.571
1562.470,-64.658
1562.480,-64.593
1562.490,-64.556
1562.500,-64.336
1562.510,-64.270
1562.520,-64.093
1562.530,-63.959
1562.540,-63.525
1562.550,-63.505
1562.560,-63.174
1562.570,-63.004
1562.580,-62.747
1562.590,-62.505
1562.600,-62.297
1562.610,-62.116
1562.620,-62.030
1562.630,-61.928
1562.640,-61.967
1562.650,-62.017
1562.660,-62.064
1562.670,-62.255
1562.680,-62.458
1562.690,-62.663
1562.700,-62.801
1562.710,-63.110
1562.720,-63.240
1562.730,-63.551
1562.740,-63.734
1562.750,-63.989
1562.760,-64.278
1562.770,-64.367
1562.780,-64.387
1562.790,-64.628
1562.800,-64.566
1562.810,-64.630
1562.820,-64.668
1562.830,-64.734
1562.840,-64.727
1562.850,-64.473
1562.860,-64.339
1562.870,-64.313
1562.880,-64.097
1562.890,-63.889
1562.900,-63.742
1562.910,-63.496
1562.920,-63.328
1562.930,-63.042
1562.940,-62.844
1562.950,-62.591
1562.960,-62.404
1562.970,-62.169
1562.980,-62.068
1562.990,-62.013
1563.000,-61.930
1563.010,-61.997
1563.020,-62.100
1563.030,-62.218
1563.040,-62.314
1563.050,-62.638
1563.060,-62.907
1563.070,-63.099
1563.080,-63.299
1563.090,-63.552
1563.100,-63.694
1563.110,-63.900
1563.120,-64.135
1563.130,-64.369
1563.140,-64.429
1563.150,-64.552
1563.160,-64.701
1563.170,-64.620
1563.180,-64.593
1563.190,-64.654
1563.200,-64.661
1563.210,-64.558
1563.220,-64.311
1563.230,-64.220
1563.240,-64.094
1563.250,-63.894
1563.260,-63.616
1563.270,-63.471
1563.280,-63.324
1563.290,-62.990
1563.300,-62.824
1563.310,-62.531
1563.320,-62.352
1563.330,-62.207
1563.340,-62.018
1563.350,-61.987
1563.360,-61.998
1563.370,-62.096
1563.380,-61.987
1563.390,-62.093
1563.400,-62.382
1563.410,-62.492
1563.420,-62.680
1563.430,-62.961
1563.440,-63.151
1563.450,-63.362
1563.460,-63.529
1563.470,-63.823
1563.480,-63.964
1563.490,-64.089
1563.500,-64.033
1563.510,-64.272
1563.520,-64.508
1563.530,-64.499
1563.540,-64.596
1563.550,-64.493
1563.560,-64.523
1563.570,-64.435
1563.580,-64.548
1563.590,-64.359
1563.600,-64.053
1563.610,-64.056
1563.620,-63.764
1563.630,-63.638
1563.640,-63.466
1563.650,-63.182
1563.660,-62.972
1563.670,-62.677
1563.680,-62.650
1563.690,-62.367
1563.700,-62.255
1563.710,-62.116
1563.720,-62.104
1563.730,-62.074
1563.740,-62.082
1563.750,-62.123
1563.760,-62.186
1563.770,-62.267
1563.780,-62.549
1563.790,-62.638
1563.800,-62.917
1563.810,-63.039
1563.820,-63.399
1563.830,-63.488
1563.840,-63.707
1563.850,-63.841
1563.860,-63.893
1563.870,-64.193
1563.880,-64.218
1563.890,-64.299
1563.900,-64.360
1563.910,-64.248
1563.920,-64.407
1563.930,-64.363
1563.940,-64.322
1563.950,-64.260
1563.960,-64.089
1563.970,-63.996
1563.980,-64.019
1563.990,-63.716
1564.000,-63.596
1564.010,-63.505
1564.020,-63.258
1564.030,-62.970
1564.040,-62.765
1564.050,-62.644
1564.060,-62.462
1564.070,-62.466
1564.080,-62.325
1564.090,-62.294
1564.100,-62.194
1564.110,-62.263
1564.120,-62.311
1564.130,-62.434
1564.140,-62.470
1564.150,-62.693
1564.160,-62.779
1564.170,-62.928
1564.180,-63.103
1564.190,-63.244
1564.200,-63.439
1564.210,-63.574
1564.220,-63.730
1564.230,-63.778
1564.240,-64.018
1564.250,-64.104
1564.260,-64.090
1564.270,-64.094
1564.280,-64.180
1564.290,-64.173
1564.300,-64.244
1564.310,-64.197
1564.320,-64.115
1564.330,-63.984
1564.340,-63.982
1564.350,-63.880
1564.360,-63.696
1564.370,-63.629
1564.380,-63.494
1564.390,-63.358
1564.400,-63.236
1564.410,-63.037
1564.420,-62.913
1564.430,-62.801
1564.440,-62.690
1564.450,-62.609
1564.460,-62.508
1564.470,-62.528
1564.480,-62.531
1564.490,-62.588
1564.500,-62.663
1564.510,-62.654
1564.520,-62.808
1564.530,-62.925
1564.540,-62.997
1564.550,-63.204
1564.560,-63.317
1564.570,-63.504
1564.580,-63.582
1564.590,-63.704
1564.600,-63.829
1564.610,-63.802
1564.620,-63.901
1564.630,-64.052
1564.640,-64.124
1564.650,-64.154
1564.660,-64.148
1564.670,-63.994
1564.680,-64.032
1564.690,-64.003
1564.700,-64.091
1564.710,-64.021
1564.720,-63.924
1564.730,-63.789
1564.740,-63.631
1564.750,-63.497
1564.760,-63.459
1564.770,-63.366
1564.780,-63.227
1564.790,-63.121
1564.800,-62.984
1564.810,-62.901
1564.820,-62.862
1564.830,-62.927
1564.840,-62.691
1564.850,-62.823
1564.860,-62.761
1564.870,-62.797
1564.880,-62.924
1564.890,-62.870
1564.900,-63.093
1564.910,-63.084
1564.920,-63.343
1564.930,-63.238
1564.940,-63.552
1564.950,-63.720
1564.960,-63.702
1564.970,-63.834
1564.980,-63.870
1564.990,-64.085
1565.000,-64.036
1565.010,-64.163
1565.020,-64.090
1565.030,-64.147
1565.040,-64.083
1565.050,-64.145
1565.060,-64.167
1565.070,-64.031
1565.080,-64.053
1565.090,-63.986
1565.100,-63.892
1565.110,-63.781
1565.120,-63.642
1565.130,-63.632
1565.140,-63.483
1565.150,-63.387
1565.160,-63.196
1565.170,-63.081
1565.180,-63.007
1565.190,-62.861
1565.200,-62.844
1565.210,-62.743
1565.220,-62.684
1565.230,-62.695
1565.240,-62.740
1565.250,-62.862
1565.260,-62.934
1565.270,-62.983
1565.280,-63.026
1565.290,-63.101
1565.300,-63.284
1565.310,-63.426
1565.320,-63.497
1565.330,-63.695
1565.340,-63.875
1565.350,-63.943
1565.360,-63.976
1565.370,-64.227
1565.380,-64.182
1565.390,-64.363
1565.400,-64.211
1565.410,-64.362
1565.420,-64.387
1565.430,-64.209
1565.440,-64.183
1565.450,-64.274
1565.460,-64.016
1565.470,-64.013
1565.480,-64.106
1565.490,-63.857
1565.500,-63.677
1565.510,-63.571
1565.520,-63.414
1565.530,-63.323
1565.540,-63.231
1565.550,-63.073
1565.560,-62.940
1565.570,-62.937
1565.580,-62.780
1565.590,-62.670
1565.600,-62.709
1565.610,-62.743
1565.620,-62.661
1565.630,-62.677
1565.640,-62.817
1565.650,-62.914
1565.660,-63.032
1565.670,-63.153
1565.680,-63.295
1565.690,-63.424
1565.700,-63.559
1565.710,-63.718
1565.720,-63.889
1565.730,-64.126
1565.740,-64.142
1565.750,-64.145
1565.760,-64.180
1565.770,-64.342
1565.780,-64.316
1565.790,-64.617
1565.800,-64.364
1565.810,-64.324
1565.820,-64.197
1565.830,-64.179
1565.840,-64.179
1565.850,-64.015
1565.860,-63.915
1565.870,-63.669
1565.880,-63.643
1565.890,-63.431
1565.900,-63.205
1565.910,-63.091
1565.920,-62.907
1565.930,-62.766
1565.940,-62.626
1565.950,-62.492
1565.960,-62.410
1565.970,-62.429
1565.980,-62.455
1565.990,-62.413
1566.000,-62.567
1566.010,-62.754
1566.020,-62.807
1566.030,-62.997
1566.040,-63.280
1566.050,-63.323
1566.060,-63.459
1566.070,-63.644
1566.080,-63.897
1566.090,-64.060
1566.100,-64.182
1566.110,-64.291
1566.120,-64.430
1566.130,-64.520
1566.140,-64.451
1566.150,-64.602
1566.160,-64.706
1566.170,-64.709
1566.180,-64.483
1566.190,-64.513
1566.200,-64.412
1566.210,-64.288
1566.220,-64.128
1566.230,-63.921
1566.240,-63.848
1566.250,-63.465
1566.260,-63.397
1566.270,-63.111
1566.280,-62.976
1566.290,-62.726
1566.300,-62.593
1566.310,-62.452
1566.320,-62.279
1566.330,-62.219
1566.340,-62.231
1566.350,-62.207
1566.360,-62.296
1566.370,-62.274
1566.380,-62.514
1566.390,-62.675
1566.400,-62.916
1566.410,-63.016
1566.420,-63.280
1566.430,-63.510
1566.440,-63.641
1566.450,-63.887
1566.460,-64.040
1566.470,-64.270
1566.480,-64.428
1566.490,-64.559
1566.500,-64.680
1566.510,-64.638
1566.520,-64.790
1566.530,-64.651
1566.540,-64.778
1566.550,-64.745
1566.560,-64.497
1566.570,-64.477
1566.580,-64.358
1566.590,-64.157
1566.600,-64.132
1566.610,-63.848
1566.620,-63.647
1566.630,-63.392
1566.640,-63.191
1566.650,-62.934
1566.660,-62.630
1566.670,-62.494
1566.680,-62.394
1566.690,-62.183
1566.700,-62.099
1566.710,-62.041
1566.720,-62.072
1566.730,-62.090
1566.740,-62.308
1566.750,-62.400
1566.760,-62.655
1566.770,-62.969
1566.780,-63.058
1566.790,-63.467
1566.800,-63.583
1566.810,-63.714
1566.820,-63.959
1566.830,-64.274
1566.840,-64.285
1566.850,-64.480
1566.860,-64.649
1566.870,-64.685
1566.880,-64.685
1566.890,-64.935
1566.900,-64.826
1566.910,-64.755
1566.920,-64.611
1566.930,-64.711
1566.940,-64.512
1566.950,-64.362
1566.960,-64.267
1566.970,-64.043
1566.980,-63.686
1566.990,-63.547
1567.000,-63.401
1567.010,-63.229
1567.020,-62.965
1567.030,-62.722
1567.040,-62.586
1567.050,-62.337
1567.060,-62.302
1567.070,-62.228
1567.080,-62.183
1567.090,-62.189
1567.100,-62.432
1567.110,-62.495
1567.120,-62.533
1567.130,-62.873
1567.140,-63.092
1567.150,-63.195
1567.160,-63.440
1567.170,-63.561
1567.180,-63.945
1567.190,-64.047
1567.200,-64.292
1567.210,-64.364
1567.220,-64.521
1567.230,-64.682
1567.240,-64.743
1567.250,-64.724
1567.260,-64.774
1567.270,-64.799
1567.280,-64.722
1567.290,-64.637
1567.300,-64.594
1567.310,-64.448
1567.320,-64.349
1567.330,-64.068
1567.340,-63.899
1567.350,-63.637
1567.360,-63.435
1567.370,-63.223
1567.380,-62.909
1567.390,-62.828
1567.400,-62.615
1567.410,-62.457
1567.420,-62.363
1567.430,-62.429
1567.440,-62.390
1567.450,-62.370
1567.460,-62.474
1567.470,-62.722
1567.480,-62.880
1567.490,-63.014
1567.500,-63.289
1567.510,-63.511
1567.520,-63.788
1567.530,-64.103
1567.540,-64.167
1567.550,-64.317
1567.560,-64.529
1567.570,-64.695
1567.580,-64.792
1567.590,-64.947
1567.600,-64.973
1567.610,-64.952
1567.620,-64.923
1567.630,-64.980
1567.640,-64.835
1567.650,-64.622
1567.660,-64.538
1567.670,-64.336
1567.680,-64.316
1567.690,-64.083
1567.700,-63.836
1567.710,-63.615
1567.720,-63.304
1567.730,-63.087
1567.740,-62.899
1567.750,-62.713
1567.760,-62.523
1567.770,-62.308
1567.780,-62.227
1567.790,-62.254
1567.800,-62.265
1567.810,-62.322
1567.820,-62.513
1567.830,-62.687
1567.840,-62.818
1567.850,-63.098
1567.860,-63.323
1567.870,-63.640
1567.880,-63.897
1567.890,-64.160
1567.900,-64.261
1567.910,-64.465
1567.920,-64.680
1567.930,-64.835
1567.940,-64.954
1567.950,-65.011
1567.960,-65.122
1567.970,-65.003
1567.980,-65.062
1567.990,-65.095
1568.000,-64.992
1568.010,-64.944
1568.020,-64.869
1568.030,-64.724
1568.040,-64.505
1568.050,-64.304
1568.060,-64.174
1568.070,-63.879
1568.080,-63.586
1568.090,-63.398
1568.100,-63.028
1568.110,-62.937
1568.120,-62.728
1568.130,-62.492
1568.140,-62.326
1568.150,-62.292
1568.160,-62.340
1568.170,-62.286
1568.180,-62.403
1568.190,-62.509
1568.200,-62.630
1568.210,-62.891
1568.220,-63.152
1568.230,-63.478
1568.240,-63.692
1568.250,-63.922
1568.260,-64.105
1568.270,-64.472
1568.280,-64.584
1568.290,-64.759
1568.300,-64.835
1568.310,-65.074
1568.320,-65.185
1568.330,-65.173
1568.340,-65.151
1568.350,-65.287
1568.360,-65.186
1568.370,-65.055
1568.380,-64.966
1568.390,-64.859
1568.400,-64.596
1568.410,-64.569
1568.420,-64.367
1568.430,-63.991
1568.440,-63.795
1568.450,-63.499
1568.460,-63.260
1568.470,-63.056
1568.480,-62.883
1568.490,-62.691
1568.500,-62.621
1568.510,-62.380
1568.520,-62.284
1568.530,-62.348
1568.540,-62.324
1568.550,-62.485
1568.560,-62.584
1568.570,-62.749
1568.580,-63.008
1568.590,-63.143
1568.600,-63.616
1568.610,-63.707
1568.620,-63.942
1568.630,-64.036
1568.640,-64.388
1568.650,-64.638
1568.660,-64.703
1568.670,-64.781
1568.680,-64.877
1568.690,-64.986
1568.700,-65.090
1568.710,-65.041
1568.720,-65.022
1568.730,-65.043
1568.740,-64.988
1568.750,-64.970
1568.760,-64.762
1568.770,-64.569
1568.780,-64.425
1568.790,-64.245
1568.800,-64.158
1568.810,-63.933
1568.820,-63.610
1568.830,-63.529
1568.840,-63.305
1568.850,-63.056
1568.860,-62.931
1568.870,-62.668
1568.880,-62.608
1568.890,-62.495
1568.900,-62.533
1568.910,-62.575
1568.920,-62.668
1568.930,-62.716
1568.940,-62.887
1568.950,-63.010
1568.960,-63.199
1568.970,-63.342
1568.980,-63.557
1568.990,-63.760
1569.000,-64.019
1569.010,-64.169
1569.020,-64.409
1569.030,-64.593
1569.040,-64.604
1569.050,-64.606
1569.060,-64.817
1569.070,-64.649
1569.080,-64.859
1569.090,-64.762
1569.100,-64.809
1569.110,-64.601
1569.120,-64.625
1569.130,-64.440
1569.140,-64.362
1569.150,-64.198
1569.160,-64.156
1569.170,-64.008
1569.180,-63.807
1569.190,-63.524
1569.200,-63.462
1569.210,-63.368
1569.220,-63.139
1569.230,-63.082
1569.240,-63.049
1569.250,-63.024
1569.260,-62.931
1569.270,-62.880
1569.280,-62.935
1569.290,-62.975
1569.300,-63.075
1569.310,-63.125
1569.320,-63.346
1569.330,-63.391
1569.340,-63.535
1569.350,-63.693
1569.360,-63.785
1569.370,-63.938
1569.380,-64.077
1569.390,-64.204
1569.400,-64.324
1569.410,-64.464
1569.420,-64.560
1569.430,-64.523
1569.440,-64.516
1569.450,-64.548
1569.460,-64.610
1569.470,-64.639
1569.480,-64.539
1569.490,-64.447
1569.500,-64.375
1569.510,-64.202
1569.520,-64.057
1569.530,-63.910
1569.540,-63.990
1569.550,-63.836
1569.560,-63.628
1569.570,-63.513
1569.580,-63.475
1569.590,-63.372
1569.600,-63.237
1569.610,-63.144
1569.620,-63.154
1569.630,-63.128
1569.640,-63.091
1569.650,-63.128
1569.660,-63.179
1569.670,-63.328
1569.680,-63.317
1569.690,-63.491
1569.700,-63.695
1569.710,-63.766
1569.720,-63.835
1569.730,-64.061
1569.740,-64.072
1569.750,-64.134
1569.760,-64.314
1569.770,-64.242
1569.780,-64.431
1569.790,-64.407
1569.800,-64.533
1569.810,-64.492
1569.820,-64.616
1569.830,-64.481
1569.840,-64.528
1569.850,-64.444
1569.860,-64.354
1569.870,-64.378
1569.880,-64.236
1569.890,-64.269
1569.900,-63.970
1569.910,-63.946
1569.920,-63.915
1569.930,-63.694
1569.940,-63.565
1569.950,-63.465
1569.960,-63.370
1569.970,-63.274
1569.980,-63.238
1569.990,-63.191
1570.000,-63.285
1570.010,-63.290
1570.020,-63.319
1570.030,-63.350
1570.040,-63.419
1570.050,-63.506
1570.060,-63.602
1570.070,-63.648
1570.080,-63.841
1570.090,-63.932
1570.100,-63.981
1570.110,-64.231
1570.120,-64.281
1570.130,-64.514
1570.140,-64.530
1570.150,-64.602
1570.160,-64.524
1570.170,-64.826
1570.180,-64.850
1570.190,-64.765
1570.200,-64.725
1570.210,-64.637
1570.220,-64.649
1570.230,-64.687
1570.240,-64.569
1570.250,-64.518
1570.260,-64.370
1570.270,-64.270
1570.280,-64.071
1570.290,-64.098
1570.300,-63.906
1570.310,-63.704
1570.320,-63.528
1570.330,-63.411
1570.340,-63.315
1570.350,-63.276
1570.360,-63.111
1570.370,-63.233
1570.380,-63.113
1570.390,-63.095
1570.400,-63.210
1570.410,-63.247
1570.420,-63.311
1570.430,-63.408
1570.440,-63.545
1570.450,-63.737
1570.460,-63.784
1570.470,-64.013
1570.480,-64.071
1570.490,-64.250
1570.500,-64.491
1570.510,-64.687
1570.520,-64.471
1570.530,-64.874
1570.540,-64.781
1570.550,-64.954
1570.560,-65.052
1570.570,-64.979
1570.580,-65.000
1570.590,-65.066
1570.600,-64.953
1570.610,-64.935
1570.620,-65.012
1570.630,-64.616
1570.640,-64.675
1570.650,-64.541
1570.660,-64.410
1570.670,-64.175
1570.680,-63.956
1570.690,-63.910
1570.700,-63.704
1570.710,-63.537
1570.720,-63.340
1570.730,-63.175
1570.740,-63.042
1570.750,-62.957
1570.760,-62.949
1570.770,-62.963
1570.780,-62.993
1570.790,-63.065
1570.800,-63.149
1570.810,-63.277
1570.820,-63.433
1570.830,-63.620
1570.840,-63.661
1570.850,-63.876
1570.860,-64.210
1570.870,-64.252
1570.880,-64.457
1570.890,-64.659
1570.900,-64.713
1570.910,-64.875
1570.920,-64.910
1570.930,-65.100
1570.940,-65.110
1570.950,-65.084
1570.960,-65.083
1570.970,-65.235
1570.980,-65.305
1570.990,-65.178
1571.000,-64.965
1571.010,-64.929
1571.020,-64.932
1571.030,-64.769
1571.040,-64.590
1571.050,-64.288
1571.060,-64.202
1571.070,-63.949
1571.080,-63.823
1571.090,-63.545
1571.100,-63.405
1571.110,-63.254
1571.120,-63.141
1571.130,-63.002
1571.140,-63.067
1571.150,-62.873
1571.160,-62.945
1571.170,-62.945
1571.180,-62.970
1571.190,-63.205
1571.200,-63.300
1571.210,-63.431
1571.220,-63.807
1571.230,-63.935
1571.240,-64.149
1571.250,-64.231
1571.260,-64.430
1571.270,-64.616
1571.280,-64.789
1571.290,-65.038
1571.300,-64.998
1571.310,-65.080
1571.320,-65.096
1571.330,-65.228
1571.340,-65.416
1571.350,-65.113
1571.360,-65.183
1571.370,-65.210
1571.380,-64.939
1571.390,-64.766
1571.400,-64.720
1571.410,-64.461
1571.420,-64.222
1571.430,-64.183
1571.440,-64.072
1571.450,-63.884
1571.460,-63.618
1571.470,-63.503
1571.480,-63.218
1571.490,-63.234
1571.500,-63.184
1571.510,-63.039
1571.520,-63.019
1571.530,-63.030
1571.540,-63.124
1571.550,-63.198
1571.560,-63.404
1571.570,-63.465
1571.580,-63.596
1571.590,-63.881
1571.600,-64.000
1571.610,-64.160
1571.620,-64.442
1571.630,-64.514
1571.640,-64.690
1571.650,-64.950
1571.660,-64.919
1571.670,-65.112
1571.680,-65.109
1571.690,-64.989
1571.700,-65.186
1571.710,-65.254
1571.720,-65.190
1571.730,-65.202
1571.740,-64.973
1571.750,-64.827
1571.760,-64.738
1571.770,-64.618
1571.780,-64.460
1571.790,-64.215
1571.800,-64.087
1571.810,-63.921
1571.820,-63.780
1571.830,-63.485
1571.840,-63.383
1571.850,-63.288
1571.860,-63.111
1571.870,-62.925
1571.880,-63.031
1571.890,-63.032
1571.900,-63.097
1571.910,-63.278
1571.920,-63.270
1571.930,-63.392
1571.940,-63.709
1571.950,-63.838
1571.960,-64.167
1571.970,-64.196
1571.980,-64.399
1571.990,-64.594
1572.000,-64.781
1572.010,-64.970
1572.020,-65.173
1572.030,-65.149
1572.040,-65.296
1572.050,-65.303
1572.060,-65.239
1572.070,-65.313
1572.080,-65.225
1572.090,-65.231
1572.100,-65.185
1572.110,-64.991
1572.120,-64.768
1572.130,-64.638
1572.140,-64.564
1572.150,-64.222
1572.160,-64.095
1572.170,-63.956
1572.180,-63.690
1572.190,-63.473
1572.200,-63.260
1572.210,-63.150
1572.220,-62.990
1572.230,-63.000
1572.240,-62.993
1572.250,-62.858
1572.260,-63.000
1572.270,-63.105
1572.280,-63.335
1572.290,-63.502
1572.300,-63.635
1572.310,-63.854
1572.320,-64.090
1572.330,-64.449
1572.340,-64.630
1572.350,-64.772
1572.360,-65.007
1572.370,-65.152
1572.380,-65.208
1572.390,-65.334
1572.400,-65.411
1572.410,-65.461
1572.420,-65.520
1572.430,-65.761
1572.440,-65.379
1572.450,-65.502
1572.460,-65.428
1572.470,-65.275
1572.480,-65.037
1572.490,-64.928
1572.500,-64.678
1572.510,-64.451
1572.520,-64.263
1572.530,-64.092
1572.540,-63.756
1572.550,-63.503
1572.560,-63.257
1572.570,-63.045
1572.580,-62.939
1572.590,-62.742
1572.600,-62.702
1572.610,-62.663
1572.620,-62.711
1572.630,-62.874
1572.640,-62.974
1572.650,-63.194
1572.660,-63.429
1572.670,-63.741
1572.680,-63.955
1572.690,-64.154
1572.700,-64.590
1572.710,-64.655
1572.720,-64.968
1572.730,-65.179
1572.740,-65.388
1572.750,-65.467
1572.760,-65.576
1572.770,-65.958
1572.780,-65.807
1572.790,-65.908
1572.800,-65.971
1572.810,-65.819
1572.820,-65.629
1572.830,-65.588
1572.840,-65.639
1572.850,-65.416
1572.860,-65.078
1572.870,-64.962
1572.880,-64.678
1572.890,-64.451
1572.900,-64.299
1572.910,-63.983
1572.920,-63.703
1572.930,-63.379
1572.940,-63.062
1572.950,-62.829
1572.960,-62.893
1572.970,-62.808
1572.980,-62.786
1572.990,-62.769
1573.000,-62.794
1573.010,-63.054
1573.020,-63.317
1573.030,-63.440
1573.040,-63.769
1573.050,-64.127
1573.060,-64.276
1573.070,-64.675
1573.080,-64.742
1573.090,-65.069
1573.100,-65.317
1573.110,-65.295
1573.120,-65.601
1573.130,-65.777
1573.140,-65.758
1573.150,-66.083
1573.160,-65.898
1573.170,-66.148
1573.180,-66.078
1573.190,-65.731
1573.200,-65.734
1573.210,-65.564
1573.220,-65.469
1573.230,-65.306
1573.240,-65.335
1573.250,-65.016
1573.260,-64.502
1573.270,-64.440
1573.280,-64.241
1573.290,-63.983
1573.300,-63.723
1573.310,-63.495
1573.320,-63.233
1573.330,-63.176
1573.340,-63.113
1573.350,-63.058
1573.360,-63.078
1573.370,-62.993
1573.380,-63.129
1573.390,-63.336
1573.400,-63.577
1573.410,-63.716
1573.420,-63.990
1573.430,-64.266
1573.440,-64.597
1573.450,-64.740
1573.460,-65.003
1573.470,-65.106
1573.480,-65.349
1573.490,-65.548
1573.500,-65.639
1573.510,-65.658
1573.520,-65.831
1573.530,-65.714
1573.540,-65.658
1573.550,-65.706
1573.560,-65.785
1573.570,-65.563
1573.580,-65.554
1573.590,-65.470
1573.600,-65.344
1573.610,-65.127
1573.620,-64.901
1573.630,-64.829
1573.640,-64.435
1573.650,-64.284
1573.660,-64.134
1573.670,-63.992
1573.680,-63.701
1573.690,-63.634
1573.700,-63.632
1573.710,-63.516
1573.720,-63.558
1573.730,-63.590
1573.740,-63.587
1573.750,-63.839
1573.760,-63.874
1573.770,-64.062
1573.780,-64.128
1573.790,-64.398
1573.800,-64.540
1573.810,-64.781
1573.820,-64.951
1573.830,-65.129
1573.840,-65.207
1573.850,-65.364
1573.860,-65.185
1573.870,-65.569
1573.880,-65.590
1573.890,-65.681
1573.900,-65.627
1573.910,-65.432
1573.920,-65.589
1573.930,-65.376
1573.940,-65.446
1573.950,-65.304
1573.960,-65.149
1573.970,-65.061
1573.980,-64.748
1573.990,-64.798
1574.000,-64.658
1574.010,-64.376
1574.020,-64.182
1574.030,-64.021
1574.040,-63.929
1574.050,-63.974
1574.060,-63.669
1574.070,-63.774
1574.080,-63.766
1574.090,-63.780
1574.100,-63.827
1574.110,-63.900
1574.120,-63.916
1574.130,-64.154
1574.140,-64.264
1574.150,-64.479
1574.160,-64.613
1574.170,-64.764
1574.180,-64.896
1574.190,-65.045
1574.200,-65.166
1574.210,-65.226
1574.220,-65.218
1574.230,-65.568
1574.240,-65.583
1574.250,-65.484
1574.260,-65.650
1574.270,-65.447
1574.280,-65.588
1574.290,-65.490
1574.300,-65.511
1574.310,-65.176
1574.320,-65.032
1574.330,-65.015
1574.340,-64.974
1574.350,-64.841
1574.360,-64.537
1574.370,-64.429
1574.380,-64.306
1574.390,-64.098
1574.400,-64.051
1574.410,-63.910
1574.420,-63.868
1574.430,-63.871
1574.440,-63.706
1574.450,-63.807
1574.460,-63.847
1574.470,-64.058
1574.480,-64.056
1574.490,-64.183
1574.500,-64.335
1574.510,-64.502
1574.520,-64.793
1574.530,-64.747
1574.540,-64.935
1574.550,-64.930
1574.560,-65.108
1574.570,-65.162
1574.580,-65.366
1574.590,-65.569
1574.600,-65.718
1574.610,-65.631
1574.620,-65.576
1574.630,-65.756
1574.640,-65.420
1574.650,-65.397
1574.660,-65.330
1574.670,-65.312
1574.680,-65.162
1574.690,-65.184
1574.700,-65.131
1574.710,-64.779
1574.720,-64.667
1574.730,-64.559
1574.740,-64.345
1574.750,-64.183
1574.760,-63.863
1574.770,-63.901
1574.780,-63.848
1574.790,-63.642
1574.800,-63.540
1574.810,-63.591
1574.820,-63.588
1574.830,-63.719
1574.840,-63.723
1574.850,-63.905
1574.860,-64.033
1574.870,-64.231
1574.880,-64.406
1574.890,-64.423
1574.900,-64.659
1574.910,-64.945
1574.920,-64.998
1574.930,-65.158
1574.940,-65.262
1574.950,-65.651
1574.960,-65.564
1574.970,-65.786
1574.980,-65.824
1574.990,-65.962
1575.000,-65.852
1575.010,-65.780
1575.020,-65.956
1575.030,-65.784
1575.040,-65.745
1575.050,-65.601
1575.060,-65.559
1575.070,-65.472
1575.080,-65.191
1575.090,-65.334
1575.100,-64.937
1575.110,-64.672
1575.120,-64.590
1575.130,-64.314
1575.140,-64.273
1575.150,-64.064
1575.160,-63.876
1575.170,-63.821
1575.180,-63.792
1575.190,-63.604
1575.200,-63.676
1575.210,-63.701
1575.220,-63.957
1575.230,-63.859
1575.240,-63.889
1575.250,-64.095
1575.260,-64.328
1575.270,-64.318
1575.280,-64.547
1575.290,-64.784
1575.300,-64.842
1575.310,-65.065
1575.320,-65.298
1575.330,-65.214
1575.340,-65.301
1575.350,-65.589
1575.360,-65.869
1575.370,-65.847
1575.380,-65.915
1575.390,-65.963
1575.400,-65.952
1575.410,-65.775
1575.420,-65.805
1575.430,-65.740
1575.440,-65.793
1575.450,-65.573
1575.460,-65.605
1575.470,-65.529
1575.480,-65.119
1575.490,-65.228
1575.500,-64.868
1575.510,-64.700
1575.520,-64.566
1575.530,-64.381
1575.540,-64.214
1575.550,-64.103
1575.560,-63.960
1575.570,-63.733
1575.580,-63.687
1575.590,-63.641
1575.600,-63.634
1575.610,-63.695
1575.620,-63.809
1575.630,-63.930
1575.640,-64.056
1575.650,-64.068
1575.660,-64.339
1575.670,-64.454
1575.680,-64.663
1575.690,-64.797
1575.700,-65.140
1575.710,-65.266
1575.720,-65.469
1575.730,-65.450
1575.740,-65.604
1575.750,-65.753
1575.760,-65.907
1575.770,-65.955
1575.780,-66.035
1575.790,-66.007
1575.800,-66.131
1575.810,-66.002
1575.820,-66.170
1575.830,-66.140
1575.840,-65.851
1575.850,-65.906
1575.860,-65.716
1575.870,-65.379
1575.880,-65.350
1575.890,-65.326
1575.900,-65.211
1575.910,-65.048
1575.920,-64.807
1575.930,-64.655
1575.940,-64.568
1575.950,-64.476
1575.960,-64.281
1575.970,-64.338
1575.980,-64.312
1575.990,-64.223
1576.000,-64.226
1576.010,-64.163
1576.020,-64.213
1576.030,-64.231
1576.040,-64.404
1576.050,-64.501
1576.060,-64.701
1576.070,-64.678
1576.080,-64.948
1576.090,-64.998
1576.100,-65.132
1576.110,-65.361
1576.120,-65.322
1576.130,-65.663
1576.140,-65.697
1576.150,-65.758
1576.160,-65.753
1576.170,-65.780
1576.180,-65.879
1576.190,-65.885
1576.200,-65.780
1576.210,-65.679
1576.220,-65.760
1576.230,-65.667
1576.240,-65.525
1576.250,-65.571
1576.260,-65.497
1576.270,-65.474
1576.280,-65.328
1576.290,-65.144
1576.300,-65.017
1576.310,-64.881
1576.320,-64.872
1576.330,-64.832
1576.340,-64.682
1576.350,-64.745
1576.360,-64.848
1576.370,-64.765
1576.380,-64.822
1576.390,-64.925
1576.400,-64.899
1576.410,-64.919
1576.420,-65.066
1576.430,-65.091
1576.440,-65.421
1576.450,-65.351
1576.460,-65.512
1576.470,-65.412
1576.480,-65.559
1576.490,-65.894
1576.500,-65.698
1576.510,-65.808
1576.520,-65.698
1576.530,-65.698
1576.540,-65.596
1576.550,-65.666
1576.560,-65.767
1576.570,-65.648
1576.580,-65.696
1576.590,-65.430
1576.600,-65.260
1576.610,-65.226
1576.620,-65.115
1576.630,-64.970
1576.640,-64.977
1576.650,-64.770
1576.660,-64.740
1576.670,-64.667
1576.680,-64.577
1576.690,-64.620
1576.700,-64.670
1576.710,-64.665
1576.720,-64.713
1576.730,-64.866
1576.740,-64.976
1576.750,-64.845
1576.760,-65.013
1576.770,-65.266
1576.780,-65.513
1576.790,-65.566
1576.800,-65.796
1576.810,-65.917
1576.820,-65.899
1576.830,-66.038
1576.840,-66.132
1576.850,-66.275
1576.860,-66.301
1576.870,-66.254
1576.880,-66.270
1576.890,-66.235
1576.900,-66.121
1576.910,-66.169
1576.920,-66.050
1576.930,-65.948
1576.940,-65.623
1576.950,-65.693
1576.960,-65.504
1576.970,-65.277
1576.980,-65.162
1576.990,-64.926
1577.000,-64.708
1577.010,-64.587
1577.020,-64.292
1577.030,-64.229
1577.040,-64.117
1577.050,-64.148
1577.060,-63.937
1577.070,-63.906
1577.080,-63.854
1577.090,-64.095
1577.100,-64.177
1577.110,-64.391
1577.120,-64.568
1577.130,-64.804
1577.140,-64.990
1577.150,-65.244
1577.160,-65.310
1577.170,-65.743
1577.180,-65.867
1577.190,-66.252
1577.200,-66.354
1577.210,-66.591
1577.220,-66.693
1577.230,-66.666
1577.240,-66.789
1577.250,-67.011
1577.260,-66.922
1577.270,-66.987
1577.280,-66.898
1577.290,-66.633
1577.300,-66.861
1577.310,-66.791
1577.320,-66.441
1577.330,-66.273
1577.340,-65.884
1577.350,-65.491
1577.360,-65.534
1577.370,-65.206
1577.380,-64.921
1577.390,-64.462
1577.400,-64.312
1577.410,-63.987
1577.420,-63.801
1577.430,-63.593
1577.440,-63.539
1577.450,-63.321
1577.460,-63.418
1577.470,-63.437
1577.480,-63.578
1577.490,-63.754
1577.500,-63.923
1577.510,-64.266
1577.520,-64.543
1577.530,-64.856
1577.540,-65.349
1577.550,-65.619
1577.560,-65.821
1577.570,-66.172
1577.580,-66.210
1577.590,-66.715
1577.600,-66.623
1577.610,-66.707
1577.620,-66.909
1577.630,-67.131
1577.640,-67.269
1577.650,-67.052
1577.660,-66.840
1577.670,-66.909
1577.680,-66.839
1577.690,-66.765
1577.700,-66.725
1577.710,-66.709
1577.720,-66.311
1577.730,-66.051
1577.740,-65.641
1577.750,-65.459
1577.760,-65.138
1577.770,-64.921
1577.780,-64.606
1577.790,-64.360
1577.800,-64.094
1577.810,-63.829
1577.820,-63.705
1577.830,-63.656
1577.840,-63.495
1577.850,-63.600
1577.860,-63.645
1577.870,-63.792
1577.880,-64.045
1577.890,-64.288
1577.900,-64.639
1577.910,-64.886
1577.920,-65.105
1577.930,-65.574
1577.940,-65.757
1577.950,-66.041
1577.960,-66.044
1577.970,-66.516
1577.980,-66.748
1577.990,-67.106
1578.000,-67.009
1578.010,-67.156
1578.020,-67.037
1578.030,-67.010
1578.040,-67.126
1578.050,-67.229
1578.060,-67.095
1578.070,-66.957
1578.080,-66.971
1578.090,-66.871
1578.100,-66.646
1578.110,-66.459
1578.120,-66.348
1578.130,-66.211
1578.140,-65.784
1578.150,-65.775
1578.160,-65.365
1578.170,-65.426
1578.180,-64.970
1578.190,-64.888
1578.200,-64.539
1578.210,-64.415
1578.220,-64.258
1578.230,-64.374
1578.240,-64.068
1578.250,-64.156
1578.260,-64.344
1578.270,-64.371
1578.280,-64.516
1578.290,-64.518
1578.300,-64.722
1578.310,-64.961
1578.320,-65.281
1578.330,-65.425
1578.340,-65.372
1578.350,-65.614
1578.360,-65.599
1578.370,-66.007
1578.380,-66.041
1578.390,-65.961
1578.400,-66.110
1578.410,-66.199
1578.420,-66.125
1578.430,-66.141
1578.440,-66.129
1578.450,-66.066
1578.460,-66.200
1578.470,-66.193
1578.480,-66.210
1578.490,-65.836
1578.500,-65.824
1578.510,-65.806
1578.520,-65.898
1578.530,-65.845
1578.540,-65.746
1578.550,-65.697
1578.560,-65.629
1578.570,-65.576
1578.580,-65.574
1578.590,-65.766
1578.600,-65.847
1578.610,-65.650
1578.620,-65.700
1578.630,-65.890
1578.640,-65.945
1578.650,-65.964
1578.660,-65.935
1578.670,-66.156
1578.680,-65.931
1578.690,-66.025
1578.700,-66.001
1578.710,-66.073
1578.720,-65.917
1578.730,-66.048
1578.740,-65.762
1578.750,-65.810
1578.760,-65.745
1578.770,-65.675
1578.780,-65.457
1578.790,-65.354
1578.800,-65.343
1578.810,-65.263
1578.820,-65.254
1578.830,-65.292
1578.840,-65.204
1578.850,-65.362
1578.860,-65.314
1578.870,-65.258
1578.880,-65.333
1578.890,-65.461
1578.900,-65.464
1578.910,-65.732
1578.920,-65.821
1578.930,-65.916
1578.940,-66.119
1578.950,-66.342
1578.960,-66.471
1578.970,-66.690
1578.980,-66.724
1578.990,-66.929
1579.000,-67.118
1579.010,-67.113
1579.020,-66.931
1579.030,-67.113
1579.040,-67.073
1579.050,-67.286
1579.060,-67.067
1579.070,-66.966
1579.080,-66.628
1579.090,-66.549
1579.100,-66.180
1579.110,-66.033
1579.120,-65.367
1579.130,-65.143
1579.140,-64.851
1579.150,-64.275
1579.160,-63.677
1579.170,-63.155
1579.180,-62.748
1579.190,-62.302
1579.200,-61.874
1579.210,-61.753
1579.220,-61.719
1579.230,-61.847
1579.240,-62.210
1579.250,-62.779
1579.260,-63.350
1579.270,-64.032
1579.280,-64.648
1579.290,-65.346
1579.300,-66.119
1579.310,-66.759
1579.320,-67.184
1579.330,-67.964
1579.340,-68.407
1579.350,-68.776
1579.360,-69.095
1579.370,-69.746
1579.380,-69.936
1579.390,-70.312
1579.400,-70.601
1579.410,-70.320
1579.420,-71.301
1579.430,-71.864
1579.440,-71.464
1579.450,-71.371
1579.460,-71.028
1579.470,-71.883
1579.480,-70.900
1579.490,-71.855
1579.500,-71.380
1579.510,-71.983
1579.520,-71.748
1579.530,-71.492
1579.540,-71.325
1579.550,-71.306
1579.560,-70.431
1579.570,-70.259
1579.580,-69.967
1579.590,-69.805
1579.600,-69.586
1579.610,-68.589
1579.620,-69.071
1579.630,-67.946
1579.640,-67.887
1579.650,-67.221
1579.660,-67.122
1579.670,-66.697
1579.680,-66.005
1579.690,-64.373
1579.700,-62.231
1579.710,-60.036
1579.720,-58.094
1579.730,-55.738
1579.740,-53.347
1579.750,-50.610
1579.760,-46.495
1579.770,-37.476
1579.780,-32.049
1579.790,-28.433
1579.800,-24.610
1579.810,-19.464
1579.820,-9.777
1579.830,-5.976
1579.840,-5.569
1579.850,-5.891
1579.860,-8.938
1579.870,-16.757
1579.880,-20.643
1579.890,-25.071
1579.900,-29.453
1579.910,-37.215
1579.920,-45.613
1579.930,-49.146
1579.940,-52.303
1579.950,-55.031
1579.960,-56.834
1579.970,-58.203
1579.980,-59.757
1579.990,-61.122
1580.000,-62.313
1580.010,-63.273
1580.020,-64.041
1580.030,-64.633
1580.040,-64.928
1580.050,-65.476
1580.060,-65.852
1580.070,-65.812
1580.080,-65.882
1580.090,-66.134
1580.100,-66.550
1580.110,-66.234
1580.120,-66.622
1580.130,-66.799
1580.140,-66.361
1580.150,-66.378
1580.160,-66.368
1580.170,-66.087
1580.180,-65.902
1580.190,-65.523
1580.200,-65.360
1580.210,-65.043
1580.220,-64.806
1580.230,-64.246
1580.240,-64.117
1580.250,-63.588
1580.260,-63.111
1580.270,-62.626
1580.280,-62.140
1580.290,-61.736
1580.300,-61.293
1580.310,-60.930
1580.320,-60.647
1580.330,-60.547
1580.340,-60.548
1580.350,-60.598
1580.360,-60.730
1580.370,-61.043
1580.380,-61.377
1580.390,-62.024
1580.400,-62.460
1580.410,-62.889
1580.420,-63.360
1580.430,-63.940
1580.440,-64.304
1580.450,-64.739
1580.460,-65.246
1580.470,-65.566
1580.480,-65.965
1580.490,-66.154
1580.500,-66.340
1580.510,-66.883
1580.520,-66.674
1580.530,-67.143
1580.540,-66.978
1580.550,-67.043
1580.560,-67.448
1580.570,-67.192
1580.580,-67.403
1580.590,-67.236
1580.600,-67.110
1580.610,-67.304
1580.620,-67.146
1580.630,-66.957
1580.640,-66.706
1580.650,-66.394
1580.660,-66.301
1580.670,-65.907
1580.680,-65.451
1580.690,-65.232
1580.700,-64.884
1580.710,-64.327
1580.720,-63.919
1580.730,-63.529
1580.740,-63.104
1580.750,-62.599
1580.760,-62.075
1580.770,-61.767
1580.780,-61.497
1580.790,-61.374
1580.800,-61.339
1580.810,-61.363
1580.820,-61.569
1580.830,-61.837
1580.840,-62.207
1580.850,-62.666
1580.860,-63.072
1580.870,-63.453
1580.880,-64.049
1580.890,-64.352
1580.900,-64.791
1580.910,-65.190
1580.920,-65.625
1580.930,-65.784
1580.940,-66.035
1580.950,-66.349
1580.960,-66.636
1580.970,-66.829
1580.980,-66.954
1580.990,-67.120
1581.000,-67.002
1581.010,-67.108
1581.020,-67.146
1581.030,-67.038
1581.040,-67.067
1581.050,-66.919
1581.060,-66.784
1581.070,-66.598
1581.080,-66.509
1581.090,-66.039
1581.100,-65.951
1581.110,-65.554
1581.120,-65.446
1581.130,-65.052
1581.140,-64.803
1581.150,-64.330
1581.160,-64.151
1581.170,-63.849
1581.180,-63.581
1581.190,-63.329
1581.200,-62.996
1581.210,-63.017
1581.220,-62.919
1581.230,-62.930
1581.240,-62.997
1581.250,-63.287
1581.260,-63.409
1581.270,-63.713
1581.280,-64.122
1581.290,-64.337
1581.300,-64.868
1581.310,-64.852
1581.320,-65.184
1581.330,-65.408
1581.340,-65.705
1581.350,-66.076
1581.360,-66.277
1581.370,-66.316
1581.380,-66.643
1581.390,-66.783
1581.400,-66.855
1581.410,-66.809
1581.420,-66.940
1581.430,-66.987
1581.440,-66.834
1581.450,-66.914
1581.460,-66.747
1581.470,-66.784
1581.480,-66.549
1581.490,-66.538
1581.500,-66.414
1581.510,-65.993
1581.520,-65.739
1581.530,-65.769
1581.540,-65.449
1581.550,-65.218
1581.560,-65.031
1581.570,-64.615
1581.580,-64.411
1581.590,-64.216
1581.600,-64.031
1581.610,-63.938
1581.620,-63.835
1581.630,-63.793
1581.640,-63.743
1581.650,-63.847
1581.660,-63.890
1581.670,-63.973
1581.680,-64.087
1581.690,-64.338
1581.700,-64.418
1581.710,-64.834
1581.720,-65.118
1581.730,-65.282
1581.740,-65.297
1581.750,-65.767
1581.760,-65.818
1581.770,-65.917
1581.780,-66.288
1581.790,-66.373
1581.800,-66.227
1581.810,-66.490
1581.820,-66.411
1581.830,-66.435
1581.840,-66.272
1581.850,-66.411
1581.860,-66.309
1581.870,-66.421
1581.880,-66.374
1581.890,-66.207
1581.900,-66.006
1581.910,-66.024
1581.920,-65.891
1581.930,-65.943
1581.940,-65.657
1581.950,-65.687
1581.960,-65.501
1581.970,-65.380
1581.980,-65.420
1581.990,-65.310
1582.000,-65.106
1582.010,-65.173
1582.020,-65.125
1582.030,-65.245
1582.040,-65.152
1582.050,-65.104
1582.060,-65.204
1582.070,-65.305
1582.080,-65.313
1582.090,-65.211
1582.100,-65.274
1582.110,-65.599
1582.120,-65.527
1582.130,-65.508
1582.140,-65.578
1582.150,-65.649
1582.160,-65.651
1582.170,-65.609
1582.180,-65.645
1582.190,-65.774
1582.200,-65.655
1582.210,-65.661
1582.220,-65.738
1582.230,-65.828
1582.240,-65.589
1582.250,-65.612
1582.260,-65.549
1582.270,-65.314
1582.280,-65.497
1582.290,-65.219
1582.300,-65.328
1582.310,-65.131
1582.320,-65.311
1582.330,-65.280
1582.340,-65.412
1582.350,-65.224
1582.360,-65.440
1582.370,-65.621
1582.380,-65.594
1582.390,-65.502
1582.400,-65.916
1582.410,-65.991
1582.420,-65.982
1582.430,-66.053
1582.440,-66.136
1582.450,-66.235
1582.460,-66.211
1582.470,-66.411
1582.480,-66.476
1582.490,-66.240
1582.500,-66.463
1582.510,-66.635
1582.520,-66.497
1582.530,-66.390
1582.540,-66.274
1582.550,-66.236
1582.560,-66.281
1582.570,-65.951
1582.580,-65.764
1582.590,-65.637
1582.600,-65.517
1582.610,-65.295
1582.620,-65.206
1582.630,-65.074
1582.640,-64.805
1582.650,-64.819
1582.660,-64.753
1582.670,-64.638
1582.680,-64.589
1582.690,-64.616
1582.700,-64.650
1582.710,-64.610
1582.720,-64.798
1582.730,-64.704
1582.740,-64.955
1582.750,-65.391
1582.760,-65.423
1582.770,-65.637
1582.780,-65.769
1582.790,-66.167
1582.800,-66.224
1582.810,-66.432
1582.820,-66.726
1582.830,-66.848
1582.840,-66.675
1582.850,-66.969
1582.860,-66.966
1582.870,-67.222
1582.880,-66.949
1582.890,-67.140
1582.900,-67.193
1582.910,-66.962
1582.920,-67.133
1582.930,-66.972
1582.940,-66.514
1582.950,-66.539
1582.960,-66.267
1582.970,-66.070
1582.980,-65.987
1582.990,-65.584
1583.000,-65.418
1583.010,-65.153
1583.020,-64.786
1583.030,-64.588
1583.040,-64.365
1583.050,-64.184
1583.060,-64.153
1583.070,-63.961
1583.080,-64.058
1583.090,-63.921
1583.100,-64.123
1583.110,-64.199
1583.120,-64.480
1583.130,-64.656
1583.140,-64.947
1583.150,-65.372
1583.160,-65.462
1583.170,-65.851
1583.180,-66.339
1583.190,-66.287
1583.200,-66.526
1583.210,-66.891
1583.220,-67.112
1583.230,-67.317
1583.240,-67.229
1583.250,-67.358
1583.260,-67.319
1583.270,-67.494
1583.280,-67.284
1583.290,-67.421
1583.300,-67.583
1583.310,-67.258
1583.320,-67.079
1583.330,-67.143
1583.340,-67.079
1583.350,-66.796
1583.360,-66.355
1583.370,-66.071
1583.380,-66.074
1583.390,-65.843
1583.400,-65.463
1583.410,-65.094
1583.420,-64.754
1583.430,-64.722
1583.440,-64.429
1583.450,-64.333
1583.460,-64.191
1583.470,-64.251
1583.480,-64.253
1583.490,-64.286
1583.500,-64.671
1583.510,-64.767
1583.520,-64.974
1583.530,-65.270
1583.540,-65.422
1583.550,-65.749
1583.560,-66.125
1583.570,-66.227
1583.580,-66.556
1583.590,-66.638
1583.600,-66.909
1583.610,-66.770
1583.620,-67.037
1583.630,-67.198
1583.640,-67.561
1583.650,-67.217
1583.660,-67.648
1583.670,-67.452
1583.680,-67.306
1583.690,-67.417
1583.700,-67.228
1583.710,-66.927
1583.720,-66.836
1583.730,-66.627
1583.740,-66.410
1583.750,-66.245
1583.760,-66.019
1583.770,-65.817
1583.780,-65.563
1583.790,-65.198
1583.800,-65.217
1583.810,-65.071
1583.820,-65.000
1583.830,-64.817
1583.840,-64.636
1583.850,-64.638
1583.860,-64.822
1583.870,-64.521
1583.880,-64.892
1583.890,-64.977
1583.900,-65.199
1583.910,-65.267
1583.920,-65.601
1583.930,-66.016
1583.940,-66.263
1583.950,-66.200
1583.960,-66.399
1583.970,-66.731
1583.980,-66.834
1583.990,-66.848
1584.000,-66.963
1584.010,-67.198
1584.020,-67.297
1584.030,-67.002
1584.040,-67.180
1584.050,-67.281
1584.060,-67.212
1584.070,-67.181
1584.080,-67.177
1584.090,-67.185
1584.100,-66.788
1584.110,-66.696
1584.120,-66.371
1584.130,-66.399
1584.140,-66.267
1584.150,-66.145
1584.160,-65.956
1584.170,-65.810
1584.180,-65.560
1584.190,-65.510
1584.200,-65.458
1584.210,-65.345
1584.220,-65.334
1584.230,-65.492
1584.240,-65.393
1584.250,-65.604
1584.260,-65.797
1584.270,-65.904
1584.280,-66.038
1584.290,-65.981
1584.300,-66.320
1584.310,-66.388
1584.320,-66.550
1584.330,-66.690
1584.340,-66.838
1584.350,-66.789
1584.360,-67.074
1584.370,-66.997
1584.380,-66.992
1584.390,-67.179
1584.400,-67.084
1584.410,-67.118
1584.420,-66.978
1584.430,-66.971
1584.440,-66.833
1584.450,-66.680
1584.460,-66.571
1584.470,-66.499
1584.480,-66.354
1584.490,-66.427
1584.500,-66.146
1584.510,-66.079
1584.520,-66.010
1584.530,-65.856
1584.540,-65.772
1584.550,-65.890
1584.560,-65.649
1584.570,-65.729
1584.580,-65.637
1584.590,-65.609
1584.600,-65.832
1584.610,-65.970
1584.620,-65.739
1584.630,-66.024
1584.640,-66.359
1584.650,-66.290
1584.660,-66.496
1584.670,-66.561
1584.680,-66.743
1584.690,-67.075
1584.700,-67.056
1584.710,-67.174
1584.720,-67.158
1584.730,-67.701
1584.740,-67.198
1584.750,-67.349
1584.760,-67.253
1584.770,-67.503
1584.780,-67.442
1584.790,-67.360
1584.800,-67.076
1584.810,-66.901
1584.820,-66.941
1584.830,-66.894
1584.840,-66.388
1584.850,-66.466
1584.860,-66.163
1584.870,-66.170
1584.880,-66.026
1584.890,-65.705
1584.900,-65.678
1584.910,-65.715
1584.920,-65.493
1584.930,-65.491
1584.940,-65.579
1584.950,-65.666
1584.960,-65.543
1584.970,-65.722
1584.980,-65.773
1584.990,-65.813
1585.000,-66.063
1585.010,-66.196
1585.020,-66.483
1585.030,-66.708
1585.040,-66.937
1585.050,-66.871
1585.060,-67.090
1585.070,-67.263
1585.080,-67.182
1585.090,-67.463
1585.100,-67.483
1585.110,-67.533
1585.120,-67.395
1585.130,-67.443
1585.140,-67.643
1585.150,-67.387
1585.160,-67.516
1585.170,-67.279
1585.180,-67.119
1585.190,-67.304
1585.200,-67.041
1585.210,-66.812
1585.220,-66.656
1585.230,-66.703
1585.240,-66.237
1585.250,-66.263
1585.260,-66.057
1585.270,-65.908
1585.280,-65.778
1585.290,-65.496
1585.300,-65.519
1585.310,-65.337
1585.320,-65.442
1585.330,-65.407
1585.340,-65.366
1585.350,-65.581
1585.360,-65.471
1585.370,-65.843
1585.380,-65.914
1585.390,-66.062
1585.400,-66.213
1585.410,-66.430
1585.420,-66.542
1585.430,-66.892
1585.440,-66.900
1585.450,-67.099
1585.460,-67.187
1585.470,-67.678
1585.480,-67.702
1585.490,-67.615
1585.500,-67.459
1585.510,-67.703
1585.520,-67.561
1585.530,-67.502
1585.540,-67.747
1585.550,-67.618
1585.560,-67.459
1585.570,-67.491
1585.580,-67.358
1585.590,-67.469
1585.600,-67.155
1585.610,-67.078
1585.620,-66.802
1585.630,-66.542
1585.640,-66.253
1585.650,-66.266
1585.660,-66.000
1585.670,-66.035
1585.680,-66.181
1585.690,-65.821
1585.700,-65.732
1585.710,-65.517
1585.720,-65.430
1585.730,-65.462
1585.740,-65.543
1585.750,-65.990
1585.760,-65.907
1585.770,-65.852
1585.780,-65.999
1585.790,-66.346
1585.800,-66.273
1585.810,-66.466
1585.820,-66.557
1585.830,-66.868
1585.840,-66.882
1585.850,-67.175
1585.860,-67.225
1585.870,-67.224
1585.880,-67.139
1585.890,-67.215
1585.900,-67.574
1585.910,-67.345
1585.920,-67.548
1585.930,-67.346
1585.940,-67.604
1585.950,-67.214
1585.960,-67.259
1585.970,-67.253
1585.980,-67.242
1585.990,-67.012
1586.000,-66.969
1586.010,-67.117
1586.020,-66.764
1586.030,-66.707
1586.040,-66.429
1586.050,-66.442
1586.060,-66.160
1586.070,-66.340
1586.080,-66.067
1586.090,-66.057
1586.100,-65.906
1586.110,-65.891
1586.120,-65.943
1586.130,-65.822
1586.140,-66.280
1586.150,-66.029
1586.160,-66.297
1586.170,-66.133
1586.180,-66.403
1586.190,-66.475
1586.200,-66.747
1586.210,-66.851
1586.220,-66.803
1586.230,-66.978
1586.240,-67.104
1586.250,-67.086
1586.260,-66.886
1586.270,-67.311
1586.280,-67.413
1586.290,-67.034
1586.300,-67.252
1586.310,-67.181
1586.320,-67.327
1586.330,-67.235
1586.340,-67.293
1586.350,-67.191
1586.360,-67.284
1586.370,-67.385
1586.380,-67.031
1586.390,-66.905
1586.400,-66.726
1586.410,-66.780
1586.420,-66.848
1586.430,-66.445
1586.440,-66.577
1586.450,-66.308
1586.460,-66.233
1586.470,-66.377
1586.480,-66.247
1586.490,-66.318
1586.500,-66.260
1586.510,-66.073
1586.520,-66.288
1586.530,-66.285
1586.540,-66.476
1586.550,-66.618
1586.560,-66.459
1586.570,-66.674
1586.580,-66.542
1586.590,-66.956
1586.600,-66.869
1586.610,-66.925
1586.620,-66.993
1586.630,-67.114
1586.640,-67.292
1586.650,-67.346
1586.660,-67.412
1586.670,-67.522
1586.680,-67.406
1586.690,-67.549
1586.700,-67.732
1586.710,-67.247
1586.720,-67.249
1586.730,-67.300
1586.740,-67.277
1586.750,-67.056
1586.760,-67.254
1586.770,-67.037
1586.780,-66.709
1586.790,-66.764
1586.800,-66.713
1586.810,-66.779
1586.820,-66.645
1586.830,-66.651
1586.840,-66.564
1586.850,-66.382
1586.860,-66.412
1586.870,-66.584
1586.880,-66.563
1586.890,-66.564
1586.900,-66.428
1586.910,-66.603
1586.920,-66.644
1586.930,-66.683
1586.940,-66.964
1586.950,-66.970
1586.960,-67.344
1586.970,-67.372
1586.980,-67.213
1586.990,-67.391
1587.000,-67.516
1587.010,-67.467
1587.020,-67.761
1587.030,-67.623
1587.040,-67.540
1587.050,-67.779
1587.060,-67.716
1587.070,-67.469
1587.080,-67.703
1587.090,-67.620
1587.100,-67.575
1587.110,-67.200
1587.120,-67.735
1587.130,-67.265
1587.140,-67.128
1587.150,-67.011
1587.160,-67.147
1587.170,-66.736
1587.180,-66.775
1587.190,-66.688
1587.200,-66.470
1587.210,-66.695
1587.220,-66.376
1587.230,-66.427
1587.240,-66.315
1587.250,-66.370
1587.260,-66.535
1587.270,-66.376
1587.280,-66.246
1587.290,-66.581
1587.300,-66.604
1587.310,-67.132
1587.320,-67.056
1587.330,-67.268
1587.340,-67.143
1587.350,-67.331
1587.360,-67.634
1587.370,-67.585
1587.380,-67.665
1587.390,-67.851
1587.400,-67.954
1587.410,-67.673
1587.420,-68.107
1587.430,-67.985
1587.440,-68.198
1587.450,-68.162
1587.460,-67.782
1587.470,-67.973
1587.480,-67.667
1587.490,-67.950
1587.500,-67.729
1587.510,-67.432
1587.520,-67.277
1587.530,-67.139
1587.540,-67.301
1587.550,-66.794
1587.560,-66.903
1587.570,-66.582
1587.580,-66.823
1587.590,-66.203
1587.600,-66.398
1587.610,-66.185
1587.620,-66.376
1587.630,-66.313
1587.640,-66.302
1587.650,-66.667
1587.660,-66.437
1587.670,-66.459
1587.680,-66.818
1587.690,-66.787
1587.700,-67.245
1587.710,-67.223
1587.720,-67.610
1587.730,-67.846
1587.740,-67.920
1587.750,-67.705
1587.760,-68.195
1587.770,-68.372
1587.780,-67.998
1587.790,-68.328
1587.800,-68.129
1587.810,-68.671
1587.820,-68.512
1587.830,-68.173
1587.840,-68.332
1587.850,-68.030
1587.860,-67.898
1587.870,-67.990
1587.880,-68.082
1587.890,-67.829
1587.900,-67.626
1587.910,-67.296
1587.920,-67.205
1587.930,-67.146
1587.940,-66.799
1587.950,-66.696
1587.960,-66.554
1587.970,-66.435
1587.980,-66.159
1587.990,-66.255
1588.000,-66.087
1588.010,-66.402
1588.020,-66.244
1588.030,-66.600
1588.040,-66.509
1588.050,-66.559
1588.060,-66.729
1588.070,-67.276
1588.080,-67.010
1588.090,-67.283
1588.100,-67.494
1588.110,-67.480
1588.120,-67.628
1588.130,-67.664
1588.140,-68.137
1588.150,-68.193
1588.160,-68.357
1588.170,-68.124
1588.180,-68.830
1588.190,-68.484
1588.200,-68.387
1588.210,-68.500
1588.220,-68.472
1588.230,-68.502
1588.240,-68.619
1588.250,-68.710
1588.260,-68.207
1588.270,-67.948
1588.280,-67.557
1588.290,-67.500
1588.300,-67.566
1588.310,-67.374
1588.320,-67.094
1588.330,-66.753
1588.340,-66.771
1588.350,-66.701
1588.360,-66.500
1588.370,-66.266
1588.380,-66.472
1588.390,-66.251
1588.400,-66.340
1588.410,-66.476
1588.420,-66.372
1588.430,-66.604
1588.440,-66.849
1588.450,-67.035
1588.460,-66.910
1588.470,-67.367
1588.480,-67.451
1588.490,-67.539
1588.500,-67.453
1588.510,-68.064
1588.520,-68.161
1588.530,-68.246
1588.540,-68.430
1588.550,-68.677
1588.560,-68.637
1588.570,-68.644
1588.580,-68.771
1588.590,-68.534
1588.600,-68.218
1588.610,-68.370
1588.620,-68.131
1588.630,-68.298
1588.640,-68.042
1588.650,-67.929
1588.660,-67.717
1588.670,-67.604
1588.680,-67.683
1588.690,-67.372
1588.700,-67.296
1588.710,-66.661
1588.720,-66.764
1588.730,-66.608
1588.740,-66.582
1588.750,-66.561
1588.760,-66.412
1588.770,-66.650
1588.780,-66.499
1588.790,-66.681
1588.800,-66.794
1588.810,-66.958
1588.820,-67.092
1588.830,-67.522
1588.840,-67.702
1588.850,-67.606
1588.860,-68.043
1588.870,-67.681
1588.880,-68.113
1588.890,-68.180
1588.900,-68.289
1588.910,-68.417
1588.920,-68.518
1588.930,-68.368
1588.940,-68.316
1588.950,-68.205
1588.960,-68.183
1588.970,-68.236
1588.980,-68.412
1588.990,-68.717
1589.000,-68.635
1589.010,-67.913
1589.020,-67.944
1589.030,-67.902
1589.040,-67.748
1589.050,-67.467
1589.060,-67.070
1589.070,-67.318
1589.080,-67.094
1589.090,-66.886
1589.100,-66.930
1589.110,-66.924
1589.120,-66.729
1589.130,-66.839
1589.140,-66.623
1589.150,-66.687
1589.160,-66.669
1589.170,-67.274
1589.180,-67.206
1589.190,-67.163
1589.200,-67.355
1589.210,-67.514
1589.220,-68.134
1589.230,-67.621
1589.240,-67.898
1589.250,-67.920
1589.260,-68.423
1589.270,-68.169
1589.280,-68.348
1589.290,-68.665
1589.300,-68.607
1589.310,-69.222
1589.320,-68.792
1589.330,-68.485
1589.340,-68.532
1589.350,-68.415
1589.360,-68.430
1589.370,-68.274
1589.380,-67.939
1589.390,-68.279
1589.400,-68.321
1589.410,-67.810
1589.420,-67.720
1589.430,-67.790
1589.440,-67.381
1589.450,-67.382
1589.460,-66.994
1589.470,-67.087
1589.480,-66.979
1589.490,-66.919
1589.500,-66.889
1589.510,-66.597
1589.520,-66.917
1589.530,-67.126
1589.540,-67.020
1589.550,-67.098
1589.560,-67.394
1589.570,-67.671
1589.580,-67.613
1589.590,-68.037
1589.600,-67.913
1589.610,-68.013
1589.620,-68.765
1589.630,-68.207
1589.640,-68.772
1589.650,-69.087
1589.660,-68.956
1589.670,-69.370
1589.680,-68.827
1589.690,-68.723
1589.700,-68.988
1589.710,-69.502
1589.720,-69.040
1589.730,-68.605
1589.740,-68.563
1589.750,-68.374
1589.760,-68.757
1589.770,-68.391
1589.780,-67.958
1589.790,-67.752
1589.800,-67.579
1589.810,-67.396
1589.820,-67.405
1589.830,-67.146
1589.840,-66.989
1589.850,-66.896
1589.860,-66.941
1589.870,-66.702
1589.880,-66.944
1589.890,-66.625
1589.900,-66.650
1589.910,-67.105
1589.920,-67.269
1589.930,-67.206
1589.940,-67.627
1589.950,-67.828
1589.960,-67.776
1589.970,-67.988
1589.980,-68.419
1589.990,-68.808
1590.000,-68.482
1590.010,-68.657
1590.020,-68.888
1590.030,-69.202
1590.040,-69.384
1590.050,-69.230
1590.060,-69.451
1590.070,-69.243
1590.080,-69.080
1590.090,-69.011
1590.100,-68.881
1590.110,-68.459
1590.120,-69.034
1590.130,-68.883
1590.140,-69.056
1590.150,-68.520
1590.160,-68.334
1590.170,-68.337
1590.180,-67.877
1590.190,-67.621
1590.200,-67.462
1590.210,-67.438
1590.220,-67.317
1590.230,-67.117
1590.240,-67.100
1590.250,-67.033
1590.260,-66.873
1590.270,-67.150
1590.280,-67.042
1590.290,-67.346
1590.300,-67.762
1590.310,-67.443
1590.320,-67.590
1590.330,-68.218
1590.340,-67.933
1590.350,-68.488
1590.360,-68.303
1590.370,-68.500
1590.380,-68.668
1590.390,-68.983
1590.400,-69.436
1590.410,-68.956
1590.420,-69.607
1590.430,-69.104
1590.440,-69.056
1590.450,-69.325
1590.460,-69.380
1590.470,-69.369
1590.480,-69.330
1590.490,-69.077
1590.500,-68.915
1590.510,-69.102
1590.520,-68.630
1590.530,-68.911
1590.540,-68.475
1590.550,-68.574
1590.560,-68.465
1590.570,-68.216
1590.580,-67.778
1590.590,-68.201
1590.600,-67.773
1590.610,-67.426
1590.620,-67.167
1590.630,-67.519
1590.640,-67.149
1590.650,-67.387
1590.660,-67.433
1590.670,-67.621
1590.680,-67.557
1590.690,-67.948
1590.700,-67.682
1590.710,-67.946
1590.720,-67.964
1590.730,-68.034
1590.740,-68.243
1590.750,-68.442
1590.760,-68.611
1590.770,-68.713
1590.780,-68.738
1590.790,-68.753
1590.800,-68.862
1590.810,-68.957
1590.820,-69.153
1590.830,-68.750
1590.840,-68.771
1590.850,-68.975
1590.860,-68.741
1590.870,-69.293
1590.880,-68.675
1590.890,-68.683
1590.900,-68.677
1590.910,-68.785
1590.920,-68.736
1590.930,-68.125
1590.940,-68.190
1590.950,-68.091
1590.960,-67.825
1590.970,-68.097
1590.980,-68.054
1590.990,-67.752
1591.000,-67.555
1591.010,-67.658
1591.020,-67.878
1591.030,-67.519
1591.040,-67.522
1591.050,-67.764
1591.060,-67.708
1591.070,-68.003
1591.080,-67.886
1591.090,-68.262
1591.100,-67.855
1591.110,-68.043
1591.120,-68.375
1591.130,-68.598
1591.140,-68.641
1591.150,-69.096
1591.160,-68.534
1591.170,-68.632
1591.180,-69.066
1591.190,-69.012
1591.200,-69.243
1591.210,-69.091
1591.220,-68.968
1591.230,-68.872
1591.240,-68.990
1591.250,-68.891
1591.260,-69.041
1591.270,-68.593
1591.280,-68.642
1591.290,-68.520
1591.300,-68.357
1591.310,-68.372
1591.320,-68.223
1591.330,-68.367
1591.340,-67.854
1591.350,-68.278
1591.360,-67.817
1591.370,-67.665
1591.380,-67.841
1591.390,-67.959
1591.400,-67.840
1591.410,-67.641
1591.420,-67.901
1591.430,-67.845
1591.440,-67.761
1591.450,-67.848
1591.460,-68.344
1591.470,-68.292
1591.480,-68.184
1591.490,-68.506
1591.500,-68.631
1591.510,-68.911
1591.520,-68.787
1591.530,-68.560
1591.540,-68.699
1591.550,-68.851
1591.560,-68.870
1591.570,-68.837
1591.580,-69.122
1591.590,-69.244
1591.600,-69.134
1591.610,-69.057
1591.620,-68.772
1591.630,-68.488
1591.640,-68.413
1591.650,-68.973
1591.660,-68.572
1591.670,-69.020
1591.680,-68.652
1591.690,-68.414
1591.700,-68.508
1591.710,-68.001
1591.720,-67.987
1591.730,-68.018
1591.740,-68.081
1591.750,-68.021
1591.760,-67.967
1591.770,-67.870
1591.780,-67.521
1591.790,-67.665
1591.800,-67.862
1591.810,-68.003
1591.820,-67.721
1591.830,-68.022
1591.840,-68.311
1591.850,-68.231
1591.860,-68.431
1591.870,-68.422
1591.880,-68.632
1591.890,-68.546
1591.900,-68.933
1591.910,-68.833
1591.920,-69.134
1591.930,-68.875
1591.940,-68.812
1591.950,-69.202
1591.960,-69.467
1591.970,-69.231
1591.980,-69.330
1591.990,-69.219
1592.000,-69.412
